#EXPORTTYPE:                 	DATA SINGLE                                  
#FILE:                       	SK_Mix_resin_entalp5kpm_30-150_bad_TG.ngb-sdg
#FORMAT:                     	NETZSCH5                                     
#FTYPE:                      	ASCII                                        
#IDENTITY:                   	SK_epoxy                                     
#DECIMAL:                    	POINT                                        
#SEPARATOR:                  	TAB                                          
#MTYPE:                      	DSC                                          
#INSTRUMENT:                 	NETZSCH DSC 214                              
#PROJECT:                    	?ø?†??-Ø                                   
#DATE/TIME:                  	12.09.2019 21:40:12 (UTC+3)                  
#CORR. FILE:                 	                                             
#TEMPCAL:                    	applied                                      
#SENSITIVITY:                	applied                                      
#LABORATORY:                 	CISIS                                        
#OPERATOR:                   	Nasonov                                      
#REMARK:                     	                                             
#SAMPLE:                     	20190907_1083-G290S -0-                      
#SAMPLE MASS /mg:            	9.38                                         
#MATERIAL:                   	                                             
#REFERENCE:                  	                                             
#REFERENCE MASS /mg:         	0                                            
#TYPE OF CRUCIBLE:           	Concavus Pan Al, pierced lid                 
#SAMPLE CRUCIBLE MASS /mg:   	0                                            
#REFERENCE CRUCIBLE MASS /mg:	0                                            
#M.RANGE /ßV:                	5000                                         
#TAU-R:                      	---                                          
#CORR. CODE:                 	009                                          
#EXO:                        	+1                                           
#RANGE:                      	-40ËC....150ËC/-10.0....50.0K/min            
#SEGMENT:                    	S3/3                                         
#SEG. 1:                     	30ËC/10.0(K/min)/-40ËC                       
#SEG. 2:                     	-40ËC/50.0(K/min)/30ËC                       
#SEG. 3:                     	30ËC/5.0(K/min)/150ËC                        

##Temp./ËC	Time/min	DSC/(mW/mg)	Sensit./(uV/mW)
 31.60408	 8.42700	      -1.86328	3.37758
 32.00257	 8.43700	      -1.85677	3.37787
 32.34011	 8.44700	      -1.84063	3.37811
 32.61848	 8.45700	      -1.81155	3.37830
 32.84159	 8.46700	      -1.76791	3.37846
 33.01394	 8.47700	      -1.71237	3.37858
 33.14110	 8.48700	      -1.64499	3.37867
 33.22843	 8.49700	      -1.56846	3.37873
 33.28109	 8.50700	      -1.48411	3.37876
 33.30390	 8.51700	      -1.39347	3.37878
 33.30144	 8.52700	      -1.29796	3.37878
 33.27849	 8.53700	      -1.19881	3.37876
 33.23934	 8.54700	      -1.09817	3.37873
 33.18794	 8.55700	      -0.99676	3.37870
 33.12795	 8.56700	      -0.89581	3.37866
 33.06265	 8.57700	      -0.79625	3.37861
 32.99453	 8.58700	      -0.69905	3.37857
 32.92672	 8.59700	      -0.60455	3.37852
 32.89068	 8.60700	      -0.51324	3.37849
 32.91499	 8.61700	      -0.42587	3.37851
 32.92204	 8.62700	      -0.34263	3.37852
 32.91666	 8.63700	      -0.26421	3.37851
 32.90035	 8.64700	      -0.19038	3.37850
 32.87439	 8.65700	      -0.12201	3.37848
 32.84032	 8.66700	-5.915389e-002	3.37846
 32.79955	 8.67700	-2.126394e-003	3.37843
 32.75335	 8.68700	 4.961146e-002	3.37840
 32.70299	 8.69700	 9.537243e-002	3.37836
 32.64966	 8.70700	       0.13555	3.37833
 32.59454	 8.71700	       0.17023	3.37829
 32.53854	 8.72700	       0.19928	3.37825
 32.48278	 8.73700	       0.22287	3.37821
 32.42805	 8.74700	       0.24144	3.37817
 32.37516	 8.75700	       0.25522	3.37813
 32.32472	 8.76700	       0.26440	3.37810
 32.27747	 8.77700	       0.26907	3.37806
 32.23393	 8.78700	       0.26993	3.37803
 32.19449	 8.79700	       0.26685	3.37800
 32.15962	 8.80700	       0.26052	3.37798
 32.12962	 8.81700	       0.25084	3.37796
 32.10482	 8.82700	       0.23877	3.37794
 32.08539	 8.83700	       0.22406	3.37793
 32.07156	 8.84700	       0.20747	3.37792
 32.06332	 8.85700	       0.18882	3.37791
 32.06075	 8.86700	       0.16888	3.37791
 32.06383	 8.87700	       0.14743	3.37791
 32.07249	 8.88700	       0.12534	3.37792
 32.08656	 8.89700	       0.10262	3.37793
 32.10603	 8.90700	 7.944365e-002	3.37794
 32.13062	 8.91700	 5.618003e-002	3.37796
 32.16012	 8.92700	 3.284842e-002	3.37798
 32.19443	 8.93700	 9.894040e-003	3.37800
 32.23309	 8.94700	-1.263993e-002	3.37803
 32.27595	 8.95700	-3.446558e-002	3.37806
 32.32271	 8.96700	-5.562905e-002	3.37810
 32.37303	 8.97700	-7.586787e-002	3.37813
 32.42660	 8.98700	-9.536583e-002	3.37817
 32.48313	 8.99700	      -0.11389	3.37821
 32.54233	 9.00700	      -0.13127	3.37825
 32.60392	 9.01700	      -0.14711	3.37829
 32.66752	 9.02700	      -0.16202	3.37834
 32.73293	 9.03700	      -0.17533	3.37838
 32.79987	 9.04700	      -0.18784	3.37843
 32.86801	 9.05700	      -0.19903	3.37848
 32.93715	 9.06700	      -0.20882	3.37853
 33.00692	 9.07700	      -0.21741	3.37857
 33.07714	 9.08700	      -0.22479	3.37862
 33.14760	 9.09700	      -0.23105	3.37867
 33.21810	 9.10700	      -0.23588	3.37872
 33.28847	 9.11700	      -0.23970	3.37877
 33.35854	 9.12700	      -0.24276	3.37881
 33.42820	 9.13700	      -0.24485	3.37886
 33.49725	 9.14700	      -0.24601	3.37891
 33.56559	 9.15700	      -0.24633	3.37895
 33.63318	 9.16700	      -0.24600	3.37900
 33.69990	 9.17700	      -0.24484	3.37904
 33.76563	 9.18700	      -0.24312	3.37909
 33.83036	 9.19700	      -0.24081	3.37913
 33.89409	 9.20700	      -0.23806	3.37917
 33.95666	 9.21700	      -0.23496	3.37922
 34.01817	 9.22700	      -0.23151	3.37926
 34.07860	 9.23700	      -0.22772	3.37930
 34.13794	 9.24700	      -0.22358	3.37934
 34.19624	 9.25700	      -0.21936	3.37937
 34.25348	 9.26700	      -0.21481	3.37941
 34.30969	 9.27700	      -0.21056	3.37945
 34.36496	 9.28700	      -0.20614	3.37948
 34.41929	 9.29700	      -0.20164	3.37952
 34.47274	 9.30700	      -0.19727	3.37955
 34.52536	 9.31700	      -0.19293	3.37959
 34.57720	 9.32700	      -0.18881	3.37962
 34.62830	 9.33700	      -0.18505	3.37966
 34.67874	 9.34700	      -0.18131	3.37969
 34.72859	 9.35700	      -0.17755	3.37972
 34.77788	 9.36700	      -0.17444	3.37975
 34.82663	 9.37700	      -0.17123	3.37978
 34.87500	 9.38700	      -0.16829	3.37981
 34.92300	 9.39700	      -0.16542	3.37984
 34.97073	 9.40700	      -0.16292	3.37987
 35.01820	 9.41700	      -0.16087	3.37991
 35.06548	 9.42700	      -0.15891	3.37994
 35.11260	 9.43700	      -0.15710	3.37997
 35.15958	 9.44700	      -0.15569	3.37999
 35.20641	 9.45700	      -0.15444	3.38002
 35.25323	 9.46700	      -0.15368	3.38005
 35.30007	 9.47700	      -0.15283	3.38008
 35.34697	 9.48700	      -0.15227	3.38011
 35.39394	 9.49700	      -0.15169	3.38014
 35.44101	 9.50700	      -0.15159	3.38017
 35.48823	 9.51700	      -0.15171	3.38020
 35.53557	 9.52700	      -0.15180	3.38023
 35.58306	 9.53700	      -0.15201	3.38026
 35.63075	 9.54700	      -0.15220	3.38029
 35.67860	 9.55700	      -0.15289	3.38032
 35.72662	 9.56700	      -0.15342	3.38035
 35.77483	 9.57700	      -0.15408	3.38038
 35.82329	 9.58700	      -0.15471	3.38041
 35.87192	 9.59700	      -0.15561	3.38044
 35.92076	 9.60700	      -0.15654	3.38047
 35.96980	 9.61700	      -0.15751	3.38050
 36.01907	 9.62700	      -0.15853	3.38053
 36.06852	 9.63700	      -0.15946	3.38056
 36.11818	 9.64700	      -0.16054	3.38059
 36.16794	 9.65700	      -0.16150	3.38062
 36.21784	 9.66700	      -0.16238	3.38065
 36.26790	 9.67700	      -0.16328	3.38068
 36.31808	 9.68700	      -0.16422	3.38071
 36.36840	 9.69700	      -0.16469	3.38074
 36.41885	 9.70700	      -0.16542	3.38077
 36.46939	 9.71700	      -0.16621	3.38080
 36.52005	 9.72700	      -0.16701	3.38083
 36.57083	 9.73700	      -0.16778	3.38086
 36.62168	 9.74700	      -0.16830	3.38089
 36.67258	 9.75700	      -0.16886	3.38092
 36.72356	 9.76700	      -0.16948	3.38095
 36.77457	 9.77700	      -0.17011	3.38098
 36.82567	 9.78700	      -0.17054	3.38101
 36.87675	 9.79700	      -0.17072	3.38104
 36.92788	 9.80700	      -0.17116	3.38107
 36.97898	 9.81700	      -0.17147	3.38110
 37.03010	 9.82700	      -0.17169	3.38113
 37.08121	 9.83700	      -0.17187	3.38116
 37.13231	 9.84700	      -0.17227	3.38119
 37.18339	 9.85700	      -0.17254	3.38122
 37.23444	 9.86700	      -0.17259	3.38125
 37.28545	 9.87700	      -0.17274	3.38128
 37.33642	 9.88700	      -0.17273	3.38131
 37.38732	 9.89700	      -0.17272	3.38133
 37.43815	 9.90700	      -0.17291	3.38136
 37.48901	 9.91700	      -0.17314	3.38139
 37.53976	 9.92700	      -0.17318	3.38142
 37.59051	 9.93700	      -0.17307	3.38145
 37.64120	 9.94700	      -0.17307	3.38148
 37.69187	 9.95700	      -0.17296	3.38151
 37.74250	 9.96700	      -0.17281	3.38154
 37.79313	 9.97700	      -0.17278	3.38156
 37.84370	 9.98700	      -0.17275	3.38159
 37.89423	 9.99700	      -0.17266	3.38162
 37.94472	10.00700	      -0.17255	3.38165
 37.99514	10.01700	      -0.17248	3.38168
 38.04552	10.02700	      -0.17242	3.38170
 38.09593	10.03700	      -0.17237	3.38173
 38.14629	10.04700	      -0.17234	3.38176
 38.19658	10.05700	      -0.17237	3.38179
 38.24690	10.06700	      -0.17236	3.38182
 38.29720	10.07700	      -0.17226	3.38184
 38.34747	10.08700	      -0.17213	3.38187
 38.39772	10.09700	      -0.17208	3.38190
 38.44793	10.10700	      -0.17213	3.38193
 38.49813	10.11700	      -0.17225	3.38195
 38.54831	10.12700	      -0.17224	3.38198
 38.59846	10.13700	      -0.17216	3.38201
 38.64859	10.14700	      -0.17219	3.38203
 38.69874	10.15700	      -0.17226	3.38206
 38.74884	10.16700	      -0.17240	3.38209
 38.79897	10.17700	      -0.17251	3.38211
 38.84911	10.18700	      -0.17254	3.38214
 38.89921	10.19700	      -0.17276	3.38217
 38.94933	10.20700	      -0.17273	3.38219
 38.99942	10.21700	      -0.17266	3.38222
 39.04948	10.22700	      -0.17272	3.38225
 39.09952	10.23700	      -0.17284	3.38227
 39.14957	10.24700	      -0.17290	3.38230
 39.19959	10.25700	      -0.17290	3.38233
 39.24965	10.26700	      -0.17286	3.38235
 39.29970	10.27700	      -0.17288	3.38238
 39.34973	10.28700	      -0.17291	3.38240
 39.39977	10.29700	      -0.17291	3.38243
 39.44984	10.30700	      -0.17306	3.38246
 39.49991	10.31700	      -0.17320	3.38248
 39.54994	10.32700	      -0.17321	3.38251
 39.60003	10.33700	      -0.17333	3.38253
 39.65012	10.34700	      -0.17360	3.38256
 39.70024	10.35700	      -0.17368	3.38258
 39.75037	10.36700	      -0.17380	3.38261
 39.80049	10.37700	      -0.17385	3.38264
 39.85059	10.38700	      -0.17404	3.38266
 39.90074	10.39700	      -0.17409	3.38269
 39.95087	10.40700	      -0.17415	3.38271
 40.00100	10.41700	      -0.17426	3.38274
 40.05116	10.42700	      -0.17429	3.38276
 40.10129	10.43700	      -0.17438	3.38279
 40.15144	10.44700	      -0.17441	3.38281
 40.20159	10.45700	      -0.17445	3.38284
 40.25176	10.46700	      -0.17459	3.38286
 40.30193	10.47700	      -0.17471	3.38289
 40.35212	10.48700	      -0.17488	3.38291
 40.40233	10.49700	      -0.17497	3.38294
 40.45250	10.50700	      -0.17512	3.38296
 40.50267	10.51700	      -0.17531	3.38299
 40.55282	10.52700	      -0.17546	3.38301
 40.60300	10.53700	      -0.17564	3.38303
 40.65319	10.54700	      -0.17575	3.38306
 40.70338	10.55700	      -0.17581	3.38308
 40.75358	10.56700	      -0.17606	3.38311
 40.80374	10.57700	      -0.17623	3.38313
 40.85392	10.58700	      -0.17629	3.38316
 40.90406	10.59700	      -0.17643	3.38318
 40.95420	10.60700	      -0.17652	3.38320
 41.00434	10.61700	      -0.17662	3.38323
 41.05452	10.62700	      -0.17674	3.38325
 41.10474	10.63700	      -0.17688	3.38327
 41.15493	10.64700	      -0.17700	3.38330
 41.20513	10.65700	      -0.17712	3.38332
 41.25535	10.66700	      -0.17726	3.38335
 41.30556	10.67700	      -0.17723	3.38337
 41.35579	10.68700	      -0.17724	3.38339
 41.40602	10.69700	      -0.17736	3.38342
 41.45624	10.70700	      -0.17736	3.38344
 41.50653	10.71700	      -0.17753	3.38346
 41.55676	10.72700	      -0.17754	3.38349
 41.60702	10.73700	      -0.17772	3.38351
 41.65726	10.74700	      -0.17783	3.38353
 41.70744	10.75700	      -0.17795	3.38355
 41.75763	10.76700	      -0.17799	3.38358
 41.80777	10.77700	      -0.17797	3.38360
 41.85790	10.78700	      -0.17802	3.38362
 41.90805	10.79700	      -0.17809	3.38365
 41.95811	10.80700	      -0.17823	3.38367
 42.00824	10.81700	      -0.17831	3.38369
 42.05839	10.82700	      -0.17842	3.38371
 42.10847	10.83700	      -0.17854	3.38374
 42.15858	10.84700	      -0.17852	3.38376
 42.20863	10.85700	      -0.17858	3.38378
 42.25868	10.86700	      -0.17863	3.38380
 42.30875	10.87700	      -0.17874	3.38382
 42.35880	10.88700	      -0.17885	3.38385
 42.40885	10.89700	      -0.17896	3.38387
 42.45889	10.90700	      -0.17894	3.38389
 42.50891	10.91700	      -0.17903	3.38391
 42.55904	10.92700	      -0.17912	3.38393
 42.60916	10.93700	      -0.17922	3.38396
 42.65923	10.94700	      -0.17935	3.38398
 42.70929	10.95700	      -0.17932	3.38400
 42.75932	10.96700	      -0.17935	3.38402
 42.80936	10.97700	      -0.17939	3.38404
 42.85944	10.98700	      -0.17933	3.38406
 42.90952	10.99700	      -0.17938	3.38408
 42.95962	11.00700	      -0.17965	3.38411
 43.00972	11.01700	      -0.17970	3.38413
 43.05982	11.02700	      -0.17970	3.38415
 43.10986	11.03700	      -0.17977	3.38417
 43.15992	11.04700	      -0.17984	3.38419
 43.20998	11.05700	      -0.17996	3.38421
 43.26002	11.06700	      -0.18011	3.38423
 43.31004	11.07700	      -0.18029	3.38425
 43.36006	11.08700	      -0.18042	3.38427
 43.41009	11.09700	      -0.18057	3.38429
 43.46014	11.10700	      -0.18071	3.38431
 43.51021	11.11700	      -0.18090	3.38433
 43.56024	11.12700	      -0.18105	3.38436
 43.61027	11.13700	      -0.18116	3.38438
 43.66031	11.14700	      -0.18140	3.38440
 43.71034	11.15700	      -0.18157	3.38442
 43.76035	11.16700	      -0.18182	3.38444
 43.81041	11.17700	      -0.18199	3.38446
 43.86047	11.18700	      -0.18216	3.38448
 43.91057	11.19700	      -0.18222	3.38450
 43.96069	11.20700	      -0.18226	3.38452
 44.01083	11.21700	      -0.18245	3.38454
 44.06093	11.22700	      -0.18246	3.38456
 44.11100	11.23700	      -0.18250	3.38458
 44.16112	11.24700	      -0.18265	3.38460
 44.21121	11.25700	      -0.18279	3.38462
 44.26132	11.26700	      -0.18284	3.38463
 44.31147	11.27700	      -0.18299	3.38465
 44.36158	11.28700	      -0.18315	3.38467
 44.41169	11.29700	      -0.18320	3.38469
 44.46178	11.30700	      -0.18318	3.38471
 44.51188	11.31700	      -0.18340	3.38473
 44.56203	11.32700	      -0.18366	3.38475
 44.61209	11.33700	      -0.18376	3.38477
 44.66214	11.34700	      -0.18387	3.38479
 44.71221	11.35700	      -0.18392	3.38481
 44.76230	11.36700	      -0.18398	3.38483
 44.81242	11.37700	      -0.18402	3.38485
 44.86251	11.38700	      -0.18417	3.38486
 44.91260	11.39700	      -0.18431	3.38488
 44.96267	11.40700	      -0.18437	3.38490
 45.01273	11.41700	      -0.18455	3.38492
 45.06283	11.42700	      -0.18457	3.38494
 45.11295	11.43700	      -0.18459	3.38496
 45.16307	11.44700	      -0.18466	3.38498
 45.21316	11.45700	      -0.18466	3.38499
 45.26326	11.46700	      -0.18473	3.38501
 45.31336	11.47700	      -0.18488	3.38503
 45.36347	11.48700	      -0.18493	3.38505
 45.41359	11.49700	      -0.18499	3.38507
 45.46368	11.50700	      -0.18514	3.38508
 45.51375	11.51700	      -0.18523	3.38510
 45.56388	11.52700	      -0.18528	3.38512
 45.61396	11.53700	      -0.18529	3.38514
 45.66404	11.54700	      -0.18533	3.38516
 45.71414	11.55700	      -0.18541	3.38517
 45.76423	11.56700	      -0.18553	3.38519
 45.81432	11.57700	      -0.18552	3.38521
 45.86440	11.58700	      -0.18556	3.38523
 45.91454	11.59700	      -0.18552	3.38524
 45.96466	11.60700	      -0.18561	3.38526
 46.01470	11.61700	      -0.18571	3.38528
 46.06478	11.62700	      -0.18589	3.38529
 46.11485	11.63700	      -0.18596	3.38531
 46.16492	11.64700	      -0.18604	3.38533
 46.21500	11.65700	      -0.18627	3.38534
 46.26511	11.66700	      -0.18640	3.38536
 46.31521	11.67700	      -0.18649	3.38538
 46.36527	11.68700	      -0.18647	3.38540
 46.41534	11.69700	      -0.18665	3.38541
 46.46539	11.70700	      -0.18670	3.38543
 46.51547	11.71700	      -0.18671	3.38545
 46.56559	11.72700	      -0.18679	3.38546
 46.61565	11.73700	      -0.18689	3.38548
 46.66575	11.74700	      -0.18704	3.38549
 46.71585	11.75700	      -0.18705	3.38551
 46.76594	11.76700	      -0.18711	3.38553
 46.81605	11.77700	      -0.18718	3.38554
 46.86609	11.78700	      -0.18714	3.38556
 46.91616	11.79700	      -0.18725	3.38558
 46.96623	11.80700	      -0.18738	3.38559
 47.01629	11.81700	      -0.18743	3.38561
 47.06631	11.82700	      -0.18760	3.38562
 47.11636	11.83700	      -0.18765	3.38564
 47.16636	11.84700	      -0.18767	3.38565
 47.21641	11.85700	      -0.18766	3.38567
 47.26645	11.86700	      -0.18764	3.38569
 47.31649	11.87700	      -0.18767	3.38570
 47.36651	11.88700	      -0.18775	3.38572
 47.41650	11.89700	      -0.18780	3.38573
 47.46653	11.90700	      -0.18788	3.38575
 47.51657	11.91700	      -0.18798	3.38576
 47.56660	11.92700	      -0.18811	3.38578
 47.61658	11.93700	      -0.18822	3.38579
 47.66661	11.94700	      -0.18822	3.38581
 47.71660	11.95700	      -0.18824	3.38582
 47.76663	11.96700	      -0.18831	3.38584
 47.81663	11.97700	      -0.18842	3.38585
 47.86666	11.98700	      -0.18851	3.38587
 47.91668	11.99700	      -0.18865	3.38588
 47.96669	12.00700	      -0.18887	3.38590
 48.01670	12.01700	      -0.18881	3.38591
 48.06674	12.02700	      -0.18888	3.38593
 48.11677	12.03700	      -0.18888	3.38594
 48.16683	12.04700	      -0.18899	3.38595
 48.21687	12.05700	      -0.18907	3.38597
 48.26693	12.06700	      -0.18911	3.38598
 48.31691	12.07700	      -0.18924	3.38600
 48.36694	12.08700	      -0.18941	3.38601
 48.41698	12.09700	      -0.18949	3.38603
 48.46703	12.10700	      -0.18956	3.38604
 48.51711	12.11700	      -0.18966	3.38605
 48.56713	12.12700	      -0.18971	3.38607
 48.61716	12.13700	      -0.18985	3.38608
 48.66721	12.14700	      -0.19000	3.38609
 48.71723	12.15700	      -0.19018	3.38611
 48.76729	12.16700	      -0.19038	3.38612
 48.81732	12.17700	      -0.19043	3.38614
 48.86736	12.18700	      -0.19051	3.38615
 48.91742	12.19700	      -0.19065	3.38616
 48.96748	12.20700	      -0.19074	3.38618
 49.01752	12.21700	      -0.19077	3.38619
 49.06758	12.22700	      -0.19092	3.38620
 49.11760	12.23700	      -0.19103	3.38622
 49.16760	12.24700	      -0.19106	3.38623
 49.21762	12.25700	      -0.19117	3.38624
 49.26762	12.26700	      -0.19125	3.38625
 49.31768	12.27700	      -0.19136	3.38627
 49.36768	12.28700	      -0.19140	3.38628
 49.41770	12.29700	      -0.19140	3.38629
 49.46775	12.30700	      -0.19155	3.38631
 49.51780	12.31700	      -0.19171	3.38632
 49.56782	12.32700	      -0.19169	3.38633
 49.61786	12.33700	      -0.19165	3.38634
 49.66785	12.34700	      -0.19171	3.38636
 49.71786	12.35700	      -0.19177	3.38637
 49.76790	12.36700	      -0.19186	3.38638
 49.81791	12.37700	      -0.19196	3.38639
 49.86797	12.38700	      -0.19200	3.38640
 49.91800	12.39700	      -0.19210	3.38642
 49.96800	12.40700	      -0.19216	3.38643
 50.01803	12.41700	      -0.19216	3.38644
 50.06809	12.42700	      -0.19232	3.38645
 50.11814	12.43700	      -0.19230	3.38646
 50.16816	12.44700	      -0.19230	3.38648
 50.21819	12.45700	      -0.19225	3.38649
 50.26822	12.46700	      -0.19231	3.38650
 50.31824	12.47700	      -0.19249	3.38651
 50.36830	12.48700	      -0.19265	3.38652
 50.41832	12.49700	      -0.19273	3.38653
 50.46836	12.50700	      -0.19293	3.38655
 50.51842	12.51700	      -0.19308	3.38656
 50.56848	12.52700	      -0.19318	3.38657
 50.61857	12.53700	      -0.19312	3.38658
 50.66863	12.54700	      -0.19306	3.38659
 50.71870	12.55700	      -0.19319	3.38660
 50.76879	12.56700	      -0.19335	3.38661
 50.81892	12.57700	      -0.19350	3.38662
 50.86903	12.58700	      -0.19355	3.38663
 50.91915	12.59700	      -0.19372	3.38665
 50.96920	12.60700	      -0.19393	3.38666
 51.01929	12.61700	      -0.19413	3.38667
 51.06940	12.62700	      -0.19426	3.38668
 51.11952	12.63700	      -0.19437	3.38669
 51.16969	12.64700	      -0.19436	3.38670
 51.21985	12.65700	      -0.19433	3.38671
 51.26996	12.66700	      -0.19448	3.38672
 51.32011	12.67700	      -0.19447	3.38673
 51.37026	12.68700	      -0.19447	3.38674
 51.42039	12.69700	      -0.19456	3.38675
 51.47053	12.70700	      -0.19478	3.38676
 51.52064	12.71700	      -0.19482	3.38677
 51.57071	12.72700	      -0.19489	3.38678
 51.62080	12.73700	      -0.19484	3.38679
 51.67085	12.74700	      -0.19487	3.38680
 51.72098	12.75700	      -0.19512	3.38681
 51.77102	12.76700	      -0.19516	3.38682
 51.82109	12.77700	      -0.19532	3.38683
 51.87114	12.78700	      -0.19535	3.38684
 51.92114	12.79700	      -0.19534	3.38685
 51.97117	12.80700	      -0.19526	3.38686
 52.02124	12.81700	      -0.19520	3.38687
 52.07123	12.82700	      -0.19517	3.38688
 52.12122	12.83700	      -0.19520	3.38689
 52.17122	12.84700	      -0.19526	3.38689
 52.22119	12.85700	      -0.19528	3.38690
 52.27119	12.86700	      -0.19539	3.38691
 52.32123	12.87700	      -0.19533	3.38692
 52.37125	12.88700	      -0.19534	3.38693
 52.42126	12.89700	      -0.19544	3.38694
 52.47129	12.90700	      -0.19553	3.38695
 52.52136	12.91700	      -0.19563	3.38696
 52.57138	12.92700	      -0.19559	3.38697
 52.62142	12.93700	      -0.19566	3.38697
 52.67144	12.94700	      -0.19571	3.38698
 52.72147	12.95700	      -0.19571	3.38699
 52.77147	12.96700	      -0.19571	3.38700
 52.82145	12.97700	      -0.19579	3.38701
 52.87143	12.98700	      -0.19585	3.38702
 52.92145	12.99700	      -0.19597	3.38702
 52.97142	13.00700	      -0.19601	3.38703
 53.02145	13.01700	      -0.19624	3.38704
 53.07146	13.02700	      -0.19629	3.38705
 53.12145	13.03700	      -0.19640	3.38706
 53.17146	13.04700	      -0.19652	3.38706
 53.22144	13.05700	      -0.19666	3.38707
 53.27143	13.06700	      -0.19682	3.38708
 53.32140	13.07700	      -0.19689	3.38709
 53.37136	13.08700	      -0.19701	3.38710
 53.42134	13.09700	      -0.19710	3.38710
 53.47138	13.10700	      -0.19713	3.38711
 53.52142	13.11700	      -0.19724	3.38712
 53.57146	13.12700	      -0.19741	3.38713
 53.62149	13.13700	      -0.19738	3.38713
 53.67154	13.14700	      -0.19747	3.38714
 53.72160	13.15700	      -0.19769	3.38715
 53.77162	13.16700	      -0.19780	3.38715
 53.82170	13.17700	      -0.19780	3.38716
 53.87177	13.18700	      -0.19794	3.38717
 53.92185	13.19700	      -0.19801	3.38717
 53.97192	13.20700	      -0.19803	3.38718
 54.02200	13.21700	      -0.19810	3.38719
 54.07203	13.22700	      -0.19809	3.38720
 54.12209	13.23700	      -0.19813	3.38720
 54.17214	13.24700	      -0.19814	3.38721
 54.22226	13.25700	      -0.19808	3.38722
 54.27234	13.26700	      -0.19810	3.38722
 54.32236	13.27700	      -0.19811	3.38723
 54.37239	13.28700	      -0.19812	3.38723
 54.42244	13.29700	      -0.19816	3.38724
 54.47248	13.30700	      -0.19820	3.38725
 54.52248	13.31700	      -0.19840	3.38725
 54.57245	13.32700	      -0.19841	3.38726
 54.62243	13.33700	      -0.19835	3.38727
 54.67236	13.34700	      -0.19840	3.38727
 54.72236	13.35700	      -0.19838	3.38728
 54.77235	13.36700	      -0.19841	3.38728
 54.82239	13.37700	      -0.19848	3.38729
 54.87240	13.38700	      -0.19849	3.38729
 54.92234	13.39700	      -0.19850	3.38730
 54.97232	13.40700	      -0.19860	3.38731
 55.02230	13.41700	      -0.19877	3.38731
 55.07230	13.42700	      -0.19888	3.38732
 55.12229	13.43700	      -0.19901	3.38732
 55.17232	13.44700	      -0.19901	3.38733
 55.22229	13.45700	      -0.19897	3.38733
 55.27227	13.46700	      -0.19897	3.38734
 55.32227	13.47700	      -0.19914	3.38734
 55.37228	13.48700	      -0.19924	3.38735
 55.42231	13.49700	      -0.19934	3.38735
 55.47230	13.50700	      -0.19945	3.38736
 55.52231	13.51700	      -0.19946	3.38736
 55.57231	13.52700	      -0.19949	3.38737
 55.62231	13.53700	      -0.19942	3.38737
 55.67236	13.54700	      -0.19939	3.38738
 55.72240	13.55700	      -0.19956	3.38738
 55.77244	13.56700	      -0.19968	3.38739
 55.82254	13.57700	      -0.19981	3.38739
 55.87260	13.58700	      -0.19984	3.38739
 55.92265	13.59700	      -0.19994	3.38740
 55.97271	13.60700	      -0.20000	3.38740
 56.02275	13.61700	      -0.19993	3.38741
 56.07280	13.62700	      -0.20004	3.38741
 56.12288	13.63700	      -0.20033	3.38742
 56.17294	13.64700	      -0.20049	3.38742
 56.22296	13.65700	      -0.20046	3.38742
 56.27300	13.66700	      -0.20055	3.38743
 56.32306	13.67700	      -0.20056	3.38743
 56.37317	13.68700	      -0.20061	3.38744
 56.42321	13.69700	      -0.20085	3.38744
 56.47323	13.70700	      -0.20087	3.38744
 56.52324	13.71700	      -0.20082	3.38745
 56.57330	13.72700	      -0.20082	3.38745
 56.62336	13.73700	      -0.20092	3.38745
 56.67341	13.74700	      -0.20112	3.38746
 56.72352	13.75700	      -0.20121	3.38746
 56.77358	13.76700	      -0.20123	3.38746
 56.82362	13.77700	      -0.20133	3.38747
 56.87363	13.78700	      -0.20137	3.38747
 56.92367	13.79700	      -0.20155	3.38747
 56.97375	13.80700	      -0.20157	3.38748
 57.02380	13.81700	      -0.20141	3.38748
 57.07385	13.82700	      -0.20141	3.38748
 57.12386	13.83700	      -0.20134	3.38748
 57.17384	13.84700	      -0.20140	3.38749
 57.22386	13.85700	      -0.20140	3.38749
 57.27391	13.86700	      -0.20146	3.38749
 57.32396	13.87700	      -0.20151	3.38750
 57.37396	13.88700	      -0.20161	3.38750
 57.42394	13.89700	      -0.20177	3.38750
 57.47396	13.90700	      -0.20174	3.38750
 57.52398	13.91700	      -0.20166	3.38750
 57.57400	13.92700	      -0.20166	3.38751
 57.62399	13.93700	      -0.20168	3.38751
 57.67396	13.94700	      -0.20178	3.38751
 57.72395	13.95700	      -0.20191	3.38751
 57.77394	13.96700	      -0.20187	3.38752
 57.82391	13.97700	      -0.20185	3.38752
 57.87390	13.98700	      -0.20199	3.38752
 57.92390	13.99700	      -0.20208	3.38752
 57.97395	14.00700	      -0.20209	3.38752
 58.02396	14.01700	      -0.20207	3.38752
 58.07399	14.02700	      -0.20221	3.38753
 58.12398	14.03700	      -0.20225	3.38753
 58.17399	14.04700	      -0.20228	3.38753
 58.22404	14.05700	      -0.20231	3.38753
 58.27405	14.06700	      -0.20231	3.38753
 58.32406	14.07700	      -0.20235	3.38753
 58.37406	14.08700	      -0.20246	3.38753
 58.42406	14.09700	      -0.20260	3.38754
 58.47413	14.10700	      -0.20259	3.38754
 58.52421	14.11700	      -0.20266	3.38754
 58.57430	14.12700	      -0.20271	3.38754
 58.62439	14.13700	      -0.20288	3.38754
 58.67445	14.14700	      -0.20285	3.38754
 58.72452	14.15700	      -0.20287	3.38754
 58.77453	14.16700	      -0.20303	3.38754
 58.82457	14.17700	      -0.20302	3.38754
 58.87463	14.18700	      -0.20303	3.38754
 58.92469	14.19700	      -0.20300	3.38754
 58.97474	14.20700	      -0.20301	3.38754
 59.02478	14.21700	      -0.20313	3.38754
 59.07481	14.22700	      -0.20336	3.38754
 59.12486	14.23700	      -0.20338	3.38754
 59.17491	14.24700	      -0.20336	3.38755
 59.22498	14.25700	      -0.20340	3.38755
 59.27501	14.26700	      -0.20347	3.38755
 59.32506	14.27700	      -0.20352	3.38755
 59.37517	14.28700	      -0.20362	3.38755
 59.42521	14.29700	      -0.20373	3.38755
 59.47525	14.30700	      -0.20373	3.38755
 59.52527	14.31700	      -0.20383	3.38754
 59.57530	14.32700	      -0.20388	3.38754
 59.62536	14.33700	      -0.20385	3.38754
 59.67547	14.34700	      -0.20387	3.38754
 59.72557	14.35700	      -0.20394	3.38754
 59.77562	14.36700	      -0.20396	3.38754
 59.82569	14.37700	      -0.20406	3.38754
 59.87580	14.38700	      -0.20411	3.38754
 59.92585	14.39700	      -0.20420	3.38754
 59.97592	14.40700	      -0.20414	3.38754
 60.02595	14.41700	      -0.20405	3.38754
 60.07600	14.42700	      -0.20411	3.38754
 60.12606	14.43700	      -0.20418	3.38754
 60.17612	14.44700	      -0.20414	3.38754
 60.22609	14.45700	      -0.20421	3.38754
 60.27610	14.46700	      -0.20431	3.38753
 60.32614	14.47700	      -0.20431	3.38753
 60.37618	14.48700	      -0.20437	3.38753
 60.42623	14.49700	      -0.20439	3.38753
 60.47626	14.50700	      -0.20443	3.38753
 60.52626	14.51700	      -0.20452	3.38753
 60.57625	14.52700	      -0.20454	3.38753
 60.62622	14.53700	      -0.20462	3.38752
 60.67610	14.54700	      -0.20463	3.38752
 60.72604	14.55700	      -0.20490	3.38752
 60.77600	14.56700	      -0.20485	3.38752
 60.82596	14.57700	      -0.20480	3.38752
 60.87591	14.58700	      -0.20482	3.38751
 60.92585	14.59700	      -0.20481	3.38751
 60.97581	14.60700	      -0.20481	3.38751
 61.02576	14.61700	      -0.20494	3.38751
 61.07571	14.62700	      -0.20505	3.38751
 61.12563	14.63700	      -0.20504	3.38750
 61.17557	14.64700	      -0.20503	3.38750
 61.22555	14.65700	      -0.20505	3.38750
 61.27552	14.66700	      -0.20502	3.38750
 61.32555	14.67700	      -0.20504	3.38749
 61.37552	14.68700	      -0.20522	3.38749
 61.42550	14.69700	      -0.20529	3.38749
 61.47555	14.70700	      -0.20530	3.38749
 61.52555	14.71700	      -0.20537	3.38748
 61.57561	14.72700	      -0.20546	3.38748
 61.62558	14.73700	      -0.20552	3.38748
 61.67554	14.74700	      -0.20542	3.38747
 61.72550	14.75700	      -0.20546	3.38747
 61.77546	14.76700	      -0.20545	3.38747
 61.82544	14.77700	      -0.20544	3.38747
 61.87541	14.78700	      -0.20557	3.38746
 61.92535	14.79700	      -0.20567	3.38746
 61.97531	14.80700	      -0.20576	3.38746
 62.02531	14.81700	      -0.20579	3.38745
 62.07528	14.82700	      -0.20588	3.38745
 62.12527	14.83700	      -0.20590	3.38745
 62.17528	14.84700	      -0.20602	3.38744
 62.22532	14.85700	      -0.20602	3.38744
 62.27532	14.86700	      -0.20624	3.38743
 62.32532	14.87700	      -0.20629	3.38743
 62.37531	14.88700	      -0.20627	3.38743
 62.42532	14.89700	      -0.20633	3.38742
 62.47530	14.90700	      -0.20650	3.38742
 62.52531	14.91700	      -0.20667	3.38742
 62.57536	14.92700	      -0.20678	3.38741
 62.62537	14.93700	      -0.20686	3.38741
 62.67545	14.94700	      -0.20687	3.38740
 62.72559	14.95700	      -0.20692	3.38740
 62.77569	14.96700	      -0.20704	3.38739
 62.82575	14.97700	      -0.20705	3.38739
 62.87581	14.98700	      -0.20705	3.38739
 62.92588	14.99700	      -0.20705	3.38738
 62.97597	15.00700	      -0.20703	3.38738
 63.02603	15.01700	      -0.20706	3.38737
 63.07613	15.02700	      -0.20707	3.38737
 63.12626	15.03700	      -0.20707	3.38736
 63.17638	15.04700	      -0.20711	3.38736
 63.22647	15.05700	      -0.20706	3.38735
 63.27652	15.06700	      -0.20702	3.38735
 63.32659	15.07700	      -0.20703	3.38734
 63.37664	15.08700	      -0.20705	3.38734
 63.42675	15.09700	      -0.20699	3.38733
 63.47682	15.10700	      -0.20697	3.38733
 63.52690	15.11700	      -0.20700	3.38732
 63.57690	15.12700	      -0.20701	3.38732
 63.62695	15.13700	      -0.20704	3.38731
 63.67700	15.14700	      -0.20710	3.38730
 63.72708	15.15700	      -0.20710	3.38730
 63.77712	15.16700	      -0.20702	3.38729
 63.82714	15.17700	      -0.20699	3.38729
 63.87716	15.18700	      -0.20699	3.38728
 63.92719	15.19700	      -0.20699	3.38728
 63.97720	15.20700	      -0.20704	3.38727
 64.02717	15.21700	      -0.20707	3.38727
 64.07714	15.22700	      -0.20708	3.38726
 64.12716	15.23700	      -0.20709	3.38725
 64.17709	15.24700	      -0.20724	3.38725
 64.22708	15.25700	      -0.20720	3.38724
 64.27707	15.26700	      -0.20709	3.38723
 64.32713	15.27700	      -0.20702	3.38723
 64.37711	15.28700	      -0.20701	3.38722
 64.42714	15.29700	      -0.20698	3.38722
 64.47713	15.30700	      -0.20699	3.38721
 64.52711	15.31700	      -0.20698	3.38720
 64.57709	15.32700	      -0.20705	3.38720
 64.62708	15.33700	      -0.20706	3.38719
 64.67709	15.34700	      -0.20701	3.38718
 64.72706	15.35700	      -0.20698	3.38718
 64.77702	15.36700	      -0.20689	3.38717
 64.82699	15.37700	      -0.20683	3.38716
 64.87698	15.38700	      -0.20699	3.38716
 64.92700	15.39700	      -0.20694	3.38715
 64.97701	15.40700	      -0.20693	3.38714
 65.02701	15.41700	      -0.20699	3.38713
 65.07699	15.42700	      -0.20703	3.38713
 65.12696	15.43700	      -0.20706	3.38712
 65.17691	15.44700	      -0.20709	3.38711
 65.22688	15.45700	      -0.20709	3.38710
 65.27689	15.46700	      -0.20710	3.38710
 65.32688	15.47700	      -0.20717	3.38709
 65.37690	15.48700	      -0.20723	3.38708
 65.42686	15.49700	      -0.20727	3.38707
 65.47679	15.50700	      -0.20726	3.38707
 65.52675	15.51700	      -0.20730	3.38706
 65.57675	15.52700	      -0.20737	3.38705
 65.62678	15.53700	      -0.20735	3.38704
 65.67680	15.54700	      -0.20735	3.38704
 65.72678	15.55700	      -0.20738	3.38703
 65.77680	15.56700	      -0.20742	3.38702
 65.82683	15.57700	      -0.20741	3.38701
 65.87683	15.58700	      -0.20748	3.38700
 65.92683	15.59700	      -0.20745	3.38699
 65.97681	15.60700	      -0.20760	3.38699
 66.02685	15.61700	      -0.20763	3.38698
 66.07693	15.62700	      -0.20765	3.38697
 66.12698	15.63700	      -0.20766	3.38696
 66.17698	15.64700	      -0.20762	3.38695
 66.22699	15.65700	      -0.20762	3.38694
 66.27701	15.66700	      -0.20766	3.38693
 66.32699	15.67700	      -0.20774	3.38693
 66.37701	15.68700	      -0.20764	3.38692
 66.42706	15.69700	      -0.20767	3.38691
 66.47707	15.70700	      -0.20763	3.38690
 66.52711	15.71700	      -0.20762	3.38689
 66.57721	15.72700	      -0.20763	3.38688
 66.62726	15.73700	      -0.20770	3.38687
 66.67729	15.74700	      -0.20770	3.38686
 66.72732	15.75700	      -0.20765	3.38685
 66.77734	15.76700	      -0.20764	3.38684
 66.82739	15.77700	      -0.20765	3.38683
 66.87745	15.78700	      -0.20762	3.38683
 66.92750	15.79700	      -0.20758	3.38682
 66.97756	15.80700	      -0.20759	3.38681
 67.02760	15.81700	      -0.20779	3.38680
 67.07770	15.82700	      -0.20778	3.38679
 67.12778	15.83700	      -0.20776	3.38678
 67.17782	15.84700	      -0.20779	3.38677
 67.22790	15.85700	      -0.20775	3.38676
 67.27795	15.86700	      -0.20782	3.38675
 67.32805	15.87700	      -0.20782	3.38674
 67.37809	15.88700	      -0.20776	3.38673
 67.42813	15.89700	      -0.20777	3.38672
 67.47816	15.90700	      -0.20783	3.38671
 67.52823	15.91700	      -0.20783	3.38670
 67.57828	15.92700	      -0.20778	3.38669
 67.62831	15.93700	      -0.20778	3.38668
 67.67833	15.94700	      -0.20781	3.38667
 67.72836	15.95700	      -0.20800	3.38665
 67.77833	15.96700	      -0.20800	3.38664
 67.82834	15.97700	      -0.20789	3.38663
 67.87838	15.98700	      -0.20788	3.38662
 67.92844	15.99700	      -0.20811	3.38661
 67.97847	16.00700	      -0.20815	3.38660
 68.02849	16.01700	      -0.20806	3.38659
 68.07849	16.02700	      -0.20800	3.38658
 68.12852	16.03700	      -0.20801	3.38657
 68.17853	16.04700	      -0.20804	3.38656
 68.22857	16.05700	      -0.20798	3.38655
 68.27859	16.06700	      -0.20794	3.38654
 68.32857	16.07700	      -0.20785	3.38652
 68.37859	16.08700	      -0.20785	3.38651
 68.42858	16.09700	      -0.20782	3.38650
 68.47857	16.10700	      -0.20778	3.38649
 68.52859	16.11700	      -0.20777	3.38648
 68.57856	16.12700	      -0.20765	3.38647
 68.62850	16.13700	      -0.20762	3.38646
 68.67847	16.14700	      -0.20762	3.38644
 68.72852	16.15700	      -0.20762	3.38643
 68.77854	16.16700	      -0.20765	3.38642
 68.82855	16.17700	      -0.20759	3.38641
 68.87855	16.18700	      -0.20761	3.38640
 68.92853	16.19700	      -0.20766	3.38638
 68.97848	16.20700	      -0.20768	3.38637
 69.02845	16.21700	      -0.20784	3.38636
 69.07840	16.22700	      -0.20785	3.38635
 69.12830	16.23700	      -0.20766	3.38634
 69.17826	16.24700	      -0.20765	3.38632
 69.22827	16.25700	      -0.20764	3.38631
 69.27819	16.26700	      -0.20768	3.38630
 69.32817	16.27700	      -0.20763	3.38629
 69.37812	16.28700	      -0.20771	3.38627
 69.42813	16.29700	      -0.20766	3.38626
 69.47809	16.30700	      -0.20770	3.38625
 69.52811	16.31700	      -0.20754	3.38624
 69.57805	16.32700	      -0.20758	3.38622
 69.62806	16.33700	      -0.20759	3.38621
 69.67806	16.34700	      -0.20758	3.38620
 69.72804	16.35700	      -0.20763	3.38618
 69.77807	16.36700	      -0.20765	3.38617
 69.82811	16.37700	      -0.20763	3.38616
 69.87815	16.38700	      -0.20763	3.38615
 69.92814	16.39700	      -0.20758	3.38613
 69.97816	16.40700	      -0.20732	3.38612
 70.02814	16.41700	      -0.20720	3.38611
 70.07817	16.42700	      -0.20727	3.38609
 70.12812	16.43700	      -0.20713	3.38608
 70.17812	16.44700	      -0.20716	3.38607
 70.22814	16.45700	      -0.20709	3.38605
 70.27818	16.46700	      -0.20700	3.38604
 70.32821	16.47700	      -0.20697	3.38602
 70.37824	16.48700	      -0.20698	3.38601
 70.42822	16.49700	      -0.20690	3.38600
 70.47822	16.50700	      -0.20683	3.38598
 70.52826	16.51700	      -0.20679	3.38597
 70.57826	16.52700	      -0.20677	3.38595
 70.62826	16.53700	      -0.20674	3.38594
 70.67830	16.54700	      -0.20651	3.38593
 70.72832	16.55700	      -0.20634	3.38591
 70.77828	16.56700	      -0.20636	3.38590
 70.82824	16.57700	      -0.20645	3.38588
 70.87825	16.58700	      -0.20631	3.38587
 70.92824	16.59700	      -0.20611	3.38585
 70.97826	16.60700	      -0.20610	3.38584
 71.02827	16.61700	      -0.20612	3.38583
 71.07831	16.62700	      -0.20594	3.38581
 71.12831	16.63700	      -0.20590	3.38580
 71.17835	16.64700	      -0.20583	3.38578
 71.22835	16.65700	      -0.20577	3.38577
 71.27833	16.66700	      -0.20569	3.38575
 71.32836	16.67700	      -0.20558	3.38574
 71.37836	16.68700	      -0.20551	3.38572
 71.42839	16.69700	      -0.20536	3.38571
 71.47839	16.70700	      -0.20520	3.38569
 71.52842	16.71700	      -0.20504	3.38568
 71.57845	16.72700	      -0.20508	3.38566
 71.62847	16.73700	      -0.20506	3.38565
 71.67843	16.74700	      -0.20497	3.38563
 71.72844	16.75700	      -0.20492	3.38562
 71.77846	16.76700	      -0.20473	3.38560
 71.82847	16.77700	      -0.20465	3.38558
 71.87848	16.78700	      -0.20470	3.38557
 71.92844	16.79700	      -0.20439	3.38555
 71.97845	16.80700	      -0.20427	3.38554
 72.02845	16.81700	      -0.20420	3.38552
 72.07842	16.82700	      -0.20400	3.38551
 72.12842	16.83700	      -0.20389	3.38549
 72.17841	16.84700	      -0.20387	3.38547
 72.22842	16.85700	      -0.20382	3.38546
 72.27841	16.86700	      -0.20362	3.38544
 72.32842	16.87700	      -0.20338	3.38543
 72.37846	16.88700	      -0.20333	3.38541
 72.42847	16.89700	      -0.20330	3.38539
 72.47849	16.90700	      -0.20301	3.38538
 72.52850	16.91700	      -0.20295	3.38536
 72.57850	16.92700	      -0.20282	3.38534
 72.62852	16.93700	      -0.20265	3.38533
 72.67854	16.94700	      -0.20245	3.38531
 72.72852	16.95700	      -0.20236	3.38529
 72.77849	16.96700	      -0.20224	3.38528
 72.82849	16.97700	      -0.20219	3.38526
 72.87855	16.98700	      -0.20184	3.38524
 72.92857	16.99700	      -0.20173	3.38523
 72.97858	17.00700	      -0.20157	3.38521
 73.02862	17.01700	      -0.20147	3.38519
 73.07866	17.02700	      -0.20138	3.38518
 73.12868	17.03700	      -0.20122	3.38516
 73.17871	17.04700	      -0.20091	3.38514
 73.22870	17.05700	      -0.20063	3.38512
 73.27872	17.06700	      -0.20040	3.38511
 73.32873	17.07700	      -0.20029	3.38509
 73.37875	17.08700	      -0.19998	3.38507
 73.42873	17.09700	      -0.19980	3.38505
 73.47874	17.10700	      -0.19961	3.38504
 73.52872	17.11700	      -0.19949	3.38502
 73.57870	17.12700	      -0.19926	3.38500
 73.62870	17.13700	      -0.19900	3.38498
 73.67872	17.14700	      -0.19890	3.38497
 73.72875	17.15700	      -0.19855	3.38495
 73.77877	17.16700	      -0.19838	3.38493
 73.82875	17.17700	      -0.19813	3.38491
 73.87872	17.18700	      -0.19795	3.38489
 73.92873	17.19700	      -0.19793	3.38488
 73.97874	17.20700	      -0.19752	3.38486
 74.02877	17.21700	      -0.19721	3.38484
 74.07877	17.22700	      -0.19712	3.38482
 74.12885	17.23700	      -0.19688	3.38480
 74.17893	17.24700	      -0.19640	3.38478
 74.22898	17.25700	      -0.19627	3.38477
 74.27903	17.26700	      -0.19607	3.38475
 74.32906	17.27700	      -0.19565	3.38473
 74.37910	17.28700	      -0.19547	3.38471
 74.42911	17.29700	      -0.19522	3.38469
 74.47911	17.30700	      -0.19504	3.38467
 74.52914	17.31700	      -0.19472	3.38465
 74.57913	17.32700	      -0.19443	3.38464
 74.62911	17.33700	      -0.19422	3.38462
 74.67913	17.34700	      -0.19390	3.38460
 74.72918	17.35700	      -0.19371	3.38458
 74.77922	17.36700	      -0.19334	3.38456
 74.82929	17.37700	      -0.19305	3.38454
 74.87933	17.38700	      -0.19262	3.38452
 74.92936	17.39700	      -0.19230	3.38450
 74.97938	17.40700	      -0.19196	3.38448
 75.02939	17.41700	      -0.19159	3.38446
 75.07941	17.42700	      -0.19140	3.38444
 75.12939	17.43700	      -0.19114	3.38442
 75.17942	17.44700	      -0.19066	3.38440
 75.22945	17.45700	      -0.19032	3.38438
 75.27949	17.46700	      -0.18991	3.38436
 75.32954	17.47700	      -0.18947	3.38434
 75.37957	17.48700	      -0.18905	3.38433
 75.42957	17.49700	      -0.18860	3.38430
 75.47959	17.50700	      -0.18819	3.38429
 75.52960	17.51700	      -0.18777	3.38427
 75.57960	17.52700	      -0.18731	3.38424
 75.62958	17.53700	      -0.18691	3.38423
 75.67958	17.54700	      -0.18649	3.38420
 75.72957	17.55700	      -0.18616	3.38418
 75.77955	17.56700	      -0.18600	3.38416
 75.82955	17.57700	      -0.18574	3.38414
 75.87952	17.58700	      -0.18521	3.38412
 75.92954	17.59700	      -0.18451	3.38410
 75.97953	17.60700	      -0.18398	3.38408
 76.02955	17.61700	      -0.18365	3.38406
 76.07955	17.62700	      -0.18317	3.38404
 76.12957	17.63700	      -0.18273	3.38402
 76.17953	17.64700	      -0.18218	3.38400
 76.22949	17.65700	      -0.18166	3.38398
 76.27947	17.66700	      -0.18121	3.38396
 76.32940	17.67700	      -0.18070	3.38394
 76.37937	17.68700	      -0.18028	3.38392
 76.42932	17.69700	      -0.17980	3.38389
 76.47931	17.70700	      -0.17927	3.38387
 76.52931	17.71700	      -0.17866	3.38385
 76.57931	17.72700	      -0.17811	3.38383
 76.62936	17.73700	      -0.17765	3.38381
 76.67939	17.74700	      -0.17712	3.38379
 76.72939	17.75700	      -0.17671	3.38377
 76.77941	17.76700	      -0.17624	3.38374
 76.82937	17.77700	      -0.17571	3.38372
 76.87935	17.78700	      -0.17519	3.38370
 76.92932	17.79700	      -0.17464	3.38368
 76.97932	17.80700	      -0.17418	3.38366
 77.02929	17.81700	      -0.17361	3.38364
 77.07925	17.82700	      -0.17302	3.38361
 77.12927	17.83700	      -0.17252	3.38359
 77.17927	17.84700	      -0.17195	3.38357
 77.22927	17.85700	      -0.17128	3.38355
 77.27927	17.86700	      -0.17059	3.38353
 77.32924	17.87700	      -0.16997	3.38350
 77.37922	17.88700	      -0.16930	3.38348
 77.42919	17.89700	      -0.16881	3.38346
 77.47917	17.90700	      -0.16808	3.38344
 77.52914	17.91700	      -0.16750	3.38341
 77.57913	17.92700	      -0.16682	3.38339
 77.62914	17.93700	      -0.16628	3.38337
 77.67916	17.94700	      -0.16590	3.38335
 77.72916	17.95700	      -0.16503	3.38332
 77.77917	17.96700	      -0.16428	3.38330
 77.82917	17.97700	      -0.16366	3.38328
 77.87921	17.98700	      -0.16307	3.38326
 77.92922	17.99700	      -0.16245	3.38323
 77.97922	18.00700	      -0.16171	3.38321
 78.02919	18.01700	      -0.16098	3.38319
 78.07919	18.02700	      -0.16022	3.38316
 78.12923	18.03700	      -0.15947	3.38314
 78.17924	18.04700	      -0.15881	3.38312
 78.22929	18.05700	      -0.15813	3.38309
 78.27934	18.06700	      -0.15754	3.38307
 78.32937	18.07700	      -0.15679	3.38305
 78.37942	18.08700	      -0.15614	3.38302
 78.42947	18.09700	      -0.15541	3.38300
 78.47955	18.10700	      -0.15455	3.38298
 78.52959	18.11700	      -0.15376	3.38295
 78.57968	18.12700	      -0.15308	3.38293
 78.62968	18.13700	      -0.15220	3.38291
 78.67973	18.14700	      -0.15129	3.38288
 78.72973	18.15700	      -0.15045	3.38286
 78.77975	18.16700	      -0.14971	3.38283
 78.82973	18.17700	      -0.14874	3.38281
 78.87978	18.18700	      -0.14794	3.38279
 78.92978	18.19700	      -0.14724	3.38276
 78.97980	18.20700	      -0.14623	3.38274
 79.02983	18.21700	      -0.14534	3.38271
 79.07986	18.22700	      -0.14449	3.38269
 79.12990	18.23700	      -0.14361	3.38267
 79.17989	18.24700	      -0.14280	3.38264
 79.22985	18.25700	      -0.14199	3.38262
 79.27986	18.26700	      -0.14106	3.38259
 79.32988	18.27700	      -0.13998	3.38257
 79.37990	18.28700	      -0.13902	3.38254
 79.42991	18.29700	      -0.13806	3.38252
 79.47995	18.30700	      -0.13712	3.38249
 79.53000	18.31700	      -0.13618	3.38247
 79.57997	18.32700	      -0.13522	3.38244
 79.63000	18.33700	      -0.13413	3.38242
 79.68002	18.34700	      -0.13305	3.38239
 79.73004	18.35700	      -0.13191	3.38237
 79.78006	18.36700	      -0.13093	3.38234
 79.83006	18.37700	      -0.12979	3.38232
 79.88011	18.38700	      -0.12883	3.38229
 79.93013	18.39700	      -0.12777	3.38227
 79.98020	18.40700	      -0.12675	3.38224
 80.03024	18.41700	      -0.12568	3.38222
 80.08029	18.42700	      -0.12458	3.38219
 80.13032	18.43700	      -0.12340	3.38217
 80.18036	18.44700	      -0.12251	3.38214
 80.23040	18.45700	      -0.12141	3.38211
 80.28039	18.46700	      -0.12004	3.38209
 80.33040	18.47700	      -0.11875	3.38206
 80.38039	18.48700	      -0.11775	3.38204
 80.43040	18.49700	      -0.11646	3.38201
 80.48036	18.50700	      -0.11520	3.38199
 80.53048	18.51700	      -0.11421	3.38196
 80.58061	18.52700	      -0.11313	3.38193
 80.63072	18.53700	      -0.11185	3.38191
 80.68088	18.54700	      -0.11049	3.38188
 80.73098	18.55700	      -0.10918	3.38185
 80.78112	18.56700	      -0.10791	3.38183
 80.83124	18.57700	      -0.10681	3.38180
 80.88138	18.58700	      -0.10544	3.38178
 80.93147	18.59700	      -0.10410	3.38175
 80.98157	18.60700	      -0.10275	3.38172
 81.03160	18.61700	      -0.10138	3.38170
 81.08163	18.62700	      -0.10005	3.38167
 81.13170	18.63700	-9.871742e-002	3.38164
 81.18169	18.64700	-9.736210e-002	3.38161
 81.23172	18.65700	-9.568382e-002	3.38159
 81.28172	18.66700	-9.427846e-002	3.38156
 81.33161	18.67700	-9.278782e-002	3.38153
 81.38151	18.68700	-9.134257e-002	3.38151
 81.43142	18.69700	-8.981201e-002	3.38148
 81.48128	18.70700	-8.821090e-002	3.38145
 81.53114	18.71700	-8.662301e-002	3.38143
 81.58104	18.72700	-8.530169e-002	3.38140
 81.63096	18.73700	-8.375608e-002	3.38137
 81.68085	18.74700	-8.193532e-002	3.38134
 81.73076	18.75700	-8.015358e-002	3.38132
 81.78065	18.76700	-7.840081e-002	3.38129
 81.83060	18.77700	-7.664968e-002	3.38126
 81.88051	18.78700	-7.480388e-002	3.38123
 81.93044	18.79700	-7.297589e-002	3.38121
 81.98035	18.80700	-7.118582e-002	3.38118
 82.03027	18.81700	-6.942379e-002	3.38115
 82.08021	18.82700	-6.775381e-002	3.38112
 82.13012	18.83700	-6.595000e-002	3.38110
 82.18004	18.84700	-6.416088e-002	3.38107
 82.22996	18.85700	-6.228546e-002	3.38104
 82.27992	18.86700	-6.039582e-002	3.38101
 82.32990	18.87700	-5.827975e-002	3.38098
 82.37988	18.88700	-5.623825e-002	3.38096
 82.42983	18.89700	-5.438853e-002	3.38093
 82.47979	18.90700	-5.255957e-002	3.38090
 82.52979	18.91700	-5.067555e-002	3.38087
 82.57962	18.92700	-4.878418e-002	3.38084
 82.62952	18.93700	-4.689299e-002	3.38081
 82.67936	18.94700	-4.501696e-002	3.38079
 82.72925	18.95700	-4.308107e-002	3.38076
 82.77914	18.96700	-4.103386e-002	3.38073
 82.82904	18.97700	-3.895605e-002	3.38070
 82.87895	18.98700	-3.679242e-002	3.38067
 82.92886	18.99700	-3.482087e-002	3.38064
 82.97877	19.00700	-3.273115e-002	3.38061
 83.02870	19.01700	-3.037093e-002	3.38058
 83.07864	19.02700	-2.809177e-002	3.38056
 83.12863	19.03700	-2.588539e-002	3.38053
 83.17861	19.04700	-2.367670e-002	3.38050
 83.22863	19.05700	-2.118907e-002	3.38047
 83.27860	19.06700	-1.870625e-002	3.38044
 83.32867	19.07700	-1.616547e-002	3.38041
 83.37879	19.08700	-1.359045e-002	3.38038
 83.42895	19.09700	-1.102249e-002	3.38035
 83.47916	19.10700	-8.443519e-003	3.38032
 83.52938	19.11700	-5.778154e-003	3.38029
 83.57955	19.12700	-3.079296e-003	3.38026
 83.62971	19.13700	-2.940205e-004	3.38023
 83.67985	19.14700	 2.544157e-003	3.38020
 83.72993	19.15700	 5.353307e-003	3.38017
 83.78002	19.16700	 8.163588e-003	3.38014
 83.83010	19.17700	 1.120378e-002	3.38011
 83.88018	19.18700	 1.421253e-002	3.38008
 83.93024	19.19700	 1.728540e-002	3.38005
 83.98033	19.20700	 2.049603e-002	3.38002
 84.03041	19.21700	 2.382459e-002	3.37999
 84.08047	19.22700	 2.704949e-002	3.37996
 84.13051	19.23700	 3.027463e-002	3.37993
 84.18059	19.24700	 3.358742e-002	3.37990
 84.23063	19.25700	 3.692147e-002	3.37987
 84.28069	19.26700	 4.033827e-002	3.37984
 84.33072	19.27700	 4.378511e-002	3.37981
 84.38073	19.28700	 4.751399e-002	3.37978
 84.43078	19.29700	 5.122245e-002	3.37975
 84.48080	19.30700	 5.473545e-002	3.37972
 84.53083	19.31700	 5.845279e-002	3.37969
 84.58082	19.32700	 6.231232e-002	3.37966
 84.63081	19.33700	 6.620350e-002	3.37963
 84.68079	19.34700	 7.010347e-002	3.37960
 84.73081	19.35700	 7.405559e-002	3.37956
 84.78082	19.36700	 7.819552e-002	3.37953
 84.83080	19.37700	 8.221633e-002	3.37950
 84.88079	19.38700	 8.652756e-002	3.37947
 84.93076	19.39700	 9.081353e-002	3.37944
 84.98077	19.40700	 9.503351e-002	3.37941
 85.03075	19.41700	 9.949412e-002	3.37938
 85.08080	19.42700	       0.10387	3.37935
 85.13081	19.43700	       0.10852	3.37931
 85.18082	19.44700	       0.11313	3.37928
 85.23083	19.45700	       0.11786	3.37925
 85.28085	19.46700	       0.12262	3.37922
 85.33086	19.47700	       0.12744	3.37919
 85.38089	19.48700	       0.13249	3.37916
 85.43088	19.49700	       0.13777	3.37912
 85.48084	19.50700	       0.14279	3.37909
 85.53078	19.51700	       0.14810	3.37906
 85.58072	19.52700	       0.15358	3.37903
 85.63073	19.53700	       0.15903	3.37900
 85.68072	19.54700	       0.16449	3.37897
 85.73073	19.55700	       0.17026	3.37893
 85.78077	19.56700	       0.17627	3.37890
 85.83082	19.57700	       0.18202	3.37887
 85.88083	19.58700	       0.18788	3.37884
 85.93086	19.59700	       0.19409	3.37880
 85.98089	19.60700	       0.20036	3.37877
 86.03090	19.61700	       0.20646	3.37874
 86.08092	19.62700	       0.21273	3.37871
 86.13098	19.63700	       0.21923	3.37867
 86.18100	19.64700	       0.22604	3.37864
 86.23099	19.65700	       0.23271	3.37861
 86.28102	19.66700	       0.23956	3.37858
 86.33103	19.67700	       0.24643	3.37854
 86.38110	19.68700	       0.25370	3.37851
 86.43113	19.69700	       0.26093	3.37848
 86.48115	19.70700	       0.26821	3.37844
 86.53123	19.71700	       0.27554	3.37841
 86.58126	19.72700	       0.28325	3.37838
 86.63132	19.73700	       0.29101	3.37835
 86.68137	19.74700	       0.29897	3.37831
 86.73139	19.75700	       0.30698	3.37828
 86.78144	19.76700	       0.31542	3.37825
 86.83147	19.77700	       0.32361	3.37821
 86.88150	19.78700	       0.33206	3.37818
 86.93150	19.79700	       0.34062	3.37815
 86.98155	19.80700	       0.34929	3.37811
 87.03159	19.81700	       0.35828	3.37808
 87.08160	19.82700	       0.36731	3.37804
 87.13158	19.83700	       0.37662	3.37801
 87.18156	19.84700	       0.38599	3.37798
 87.23160	19.85700	       0.39553	3.37794
 87.28161	19.86700	       0.40521	3.37791
 87.33162	19.87700	       0.41503	3.37787
 87.38165	19.88700	       0.42510	3.37784
 87.43167	19.89700	       0.43540	3.37781
 87.48169	19.90700	       0.44577	3.37777
 87.53170	19.91700	       0.45620	3.37774
 87.58174	19.92700	       0.46692	3.37770
 87.63180	19.93700	       0.47789	3.37767
 87.68177	19.94700	       0.48897	3.37764
 87.73178	19.95700	       0.50031	3.37760
 87.78178	19.96700	       0.51151	3.37757
 87.83178	19.97700	       0.52322	3.37753
 87.88179	19.98700	       0.53502	3.37750
 87.93180	19.99700	       0.54688	3.37746
 87.98178	20.00700	       0.55895	3.37743
 88.03175	20.01700	       0.57136	3.37739
 88.08174	20.02700	       0.58403	3.37736
 88.13171	20.03700	       0.59658	3.37732
 88.18167	20.04700	       0.60929	3.37729
 88.23165	20.05700	       0.62228	3.37725
 88.28163	20.06700	       0.63537	3.37722
 88.33163	20.07700	       0.64856	3.37718
 88.38163	20.08700	       0.66245	3.37715
 88.43160	20.09700	       0.67607	3.37711
 88.48161	20.10700	       0.68983	3.37708
 88.53160	20.11700	       0.70384	3.37704
 88.58160	20.12700	       0.71795	3.37701
 88.63162	20.13700	       0.73245	3.37697
 88.68161	20.14700	       0.74690	3.37694
 88.73162	20.15700	       0.76149	3.37690
 88.78162	20.16700	       0.77624	3.37687
 88.83160	20.17700	       0.79124	3.37683
 88.88159	20.18700	       0.80654	3.37679
 88.93162	20.19700	       0.82150	3.37676
 88.98161	20.20700	       0.83671	3.37672
 89.03160	20.21700	       0.85218	3.37669
 89.08162	20.22700	       0.86774	3.37665
 89.13165	20.23700	       0.88350	3.37661
 89.18163	20.24700	       0.89916	3.37658
 89.23167	20.25700	       0.91488	3.37654
 89.28168	20.26700	       0.93069	3.37651
 89.33173	20.27700	       0.94678	3.37647
 89.38174	20.28700	       0.96270	3.37643
 89.43175	20.29700	       0.97869	3.37640
 89.48176	20.30700	       0.99473	3.37636
 89.53175	20.31700	       1.01110	3.37632
 89.58172	20.32700	       1.02745	3.37629
 89.63168	20.33700	       1.04363	3.37625
 89.68166	20.34700	       1.05985	3.37621
 89.73168	20.35700	       1.07583	3.37618
 89.78169	20.36700	       1.09212	3.37614
 89.83173	20.37700	       1.10828	3.37610
 89.88177	20.38700	       1.12420	3.37607
 89.93176	20.39700	       1.14011	3.37603
 89.98181	20.40700	       1.15614	3.37599
 90.03186	20.41700	       1.17163	3.37596
 90.08189	20.42700	       1.18726	3.37592
 90.13195	20.43700	       1.20292	3.37588
 90.18200	20.44700	       1.21818	3.37584
 90.23208	20.45700	       1.23346	3.37581
 90.28214	20.46700	       1.24850	3.37577
 90.33217	20.47700	       1.26315	3.37573
 90.38215	20.48700	       1.27793	3.37569
 90.43211	20.49700	       1.29240	3.37566
 90.48212	20.50700	       1.30647	3.37562
 90.53209	20.51700	       1.32036	3.37558
 90.58208	20.52700	       1.33377	3.37554
 90.63204	20.53700	       1.34723	3.37551
 90.68197	20.54700	       1.36015	3.37547
 90.73196	20.55700	       1.37265	3.37543
 90.78188	20.56700	       1.38495	3.37539
 90.83181	20.57700	       1.39680	3.37536
 90.88175	20.58700	       1.40824	3.37532
 90.93173	20.59700	       1.41956	3.37528
 90.98168	20.60700	       1.43044	3.37524
 91.03163	20.61700	       1.44066	3.37520
 91.08160	20.62700	       1.45066	3.37516
 91.13157	20.63700	       1.46019	3.37513
 91.18155	20.64700	       1.46908	3.37509
 91.23153	20.65700	       1.47751	3.37505
 91.28140	20.66700	       1.48555	3.37501
 91.33134	20.67700	       1.49340	3.37497
 91.38124	20.68700	       1.50054	3.37493
 91.43119	20.69700	       1.50731	3.37490
 91.48112	20.70700	       1.51349	3.37486
 91.53108	20.71700	       1.51908	3.37482
 91.58105	20.72700	       1.52409	3.37478
 91.63101	20.73700	       1.52849	3.37474
 91.68097	20.74700	       1.53237	3.37470
 91.73089	20.75700	       1.53583	3.37466
 91.78083	20.76700	       1.53859	3.37462
 91.83075	20.77700	       1.54096	3.37458
 91.88066	20.78700	       1.54283	3.37455
 91.93052	20.79700	       1.54404	3.37451
 91.98043	20.80700	       1.54441	3.37447
 92.03037	20.81700	       1.54465	3.37443
 92.08027	20.82700	       1.54454	3.37439
 92.13017	20.83700	       1.54371	3.37435
 92.18006	20.84700	       1.54171	3.37431
 92.22996	20.85700	       1.54011	3.37427
 92.27986	20.86700	       1.53751	3.37423
 92.32980	20.87700	       1.53445	3.37419
 92.37975	20.88700	       1.53055	3.37415
 92.42973	20.89700	       1.52646	3.37411
 92.47967	20.90700	       1.52196	3.37407
 92.52958	20.91700	       1.51686	3.37403
 92.57955	20.92700	       1.51110	3.37399
 92.62952	20.93700	       1.50505	3.37395
 92.67944	20.94700	       1.49862	3.37391
 92.72940	20.95700	       1.49156	3.37387
 92.77936	20.96700	       1.48395	3.37383
 92.82937	20.97700	       1.47608	3.37379
 92.87936	20.98700	       1.46791	3.37375
 92.92934	20.99700	       1.45910	3.37371
 92.97928	21.00700	       1.44984	3.37367
 93.02925	21.01700	       1.44039	3.37363
 93.07920	21.02700	       1.43034	3.37359
 93.12919	21.03700	       1.42017	3.37355
 93.17916	21.04700	       1.40949	3.37351
 93.22911	21.05700	       1.39848	3.37347
 93.27917	21.06700	       1.38692	3.37343
 93.32934	21.07700	       1.37541	3.37339
 93.37945	21.08700	       1.36349	3.37335
 93.42956	21.09700	       1.35135	3.37330
 93.47967	21.10700	       1.33877	3.37326
 93.52977	21.11700	       1.32623	3.37322
 93.57985	21.12700	       1.31329	3.37318
 93.62995	21.13700	       1.29998	3.37314
 93.68002	21.14700	       1.28637	3.37310
 93.73013	21.15700	       1.27262	3.37306
 93.78023	21.16700	       1.25892	3.37302
 93.83029	21.17700	       1.24485	3.37297
 93.88040	21.18700	       1.23080	3.37293
 93.93052	21.19700	       1.21626	3.37289
 93.98060	21.20700	       1.20172	3.37285
 94.03067	21.21700	       1.18733	3.37281
 94.08071	21.22700	       1.17257	3.37277
 94.13078	21.23700	       1.15797	3.37272
 94.18082	21.24700	       1.14314	3.37268
 94.23086	21.25700	       1.12803	3.37264
 94.28087	21.26700	       1.11310	3.37260
 94.33090	21.27700	       1.09826	3.37256
 94.38088	21.28700	       1.08317	3.37252
 94.43076	21.29700	       1.06800	3.37247
 94.48060	21.30700	       1.05294	3.37243
 94.53048	21.31700	       1.03795	3.37239
 94.58029	21.32700	       1.02298	3.37235
 94.63010	21.33700	       1.00820	3.37231
 94.67998	21.34700	       0.99341	3.37226
 94.72988	21.35700	       0.97846	3.37222
 94.77976	21.36700	       0.96369	3.37218
 94.82965	21.37700	       0.94892	3.37214
 94.87956	21.38700	       0.93407	3.37209
 94.92948	21.39700	       0.91953	3.37205
 94.97939	21.40700	       0.90502	3.37201
 95.02942	21.41700	       0.89054	3.37197
 95.07950	21.42700	       0.87622	3.37192
 95.12957	21.43700	       0.86205	3.37188
 95.17954	21.44700	       0.84805	3.37184
 95.22952	21.45700	       0.83427	3.37179
 95.27949	21.46700	       0.82046	3.37175
 95.32933	21.47700	       0.80671	3.37171
 95.37916	21.48700	       0.79302	3.37167
 95.42901	21.49700	       0.77970	3.37162
 95.47888	21.50700	       0.76654	3.37158
 95.52878	21.51700	       0.75347	3.37154
 95.57867	21.52700	       0.74038	3.37149
 95.62865	21.53700	       0.72739	3.37145
 95.67861	21.54700	       0.71467	3.37141
 95.72858	21.55700	       0.70194	3.37136
 95.77854	21.56700	       0.68958	3.37132
 95.82847	21.57700	       0.67748	3.37128
 95.87845	21.58700	       0.66539	3.37123
 95.92837	21.59700	       0.65335	3.37119
 95.97834	21.60700	       0.64181	3.37114
 96.02837	21.61700	       0.63036	3.37110
 96.07840	21.62700	       0.61890	3.37106
 96.12842	21.63700	       0.60792	3.37101
 96.17846	21.64700	       0.59704	3.37097
 96.22850	21.65700	       0.58619	3.37092
 96.27854	21.66700	       0.57550	3.37088
 96.32855	21.67700	       0.56502	3.37084
 96.37860	21.68700	       0.55474	3.37079
 96.42872	21.69700	       0.54501	3.37075
 96.47888	21.70700	       0.53517	3.37070
 96.52910	21.71700	       0.52525	3.37066
 96.57933	21.72700	       0.51582	3.37061
 96.62958	21.73700	       0.50617	3.37057
 96.67977	21.74700	       0.49708	3.37052
 96.72994	21.75700	       0.48794	3.37048
 96.78011	21.76700	       0.47887	3.37044
 96.83026	21.77700	       0.47024	3.37039
 96.88038	21.78700	       0.46167	3.37035
 96.93051	21.79700	       0.45316	3.37030
 96.98059	21.80700	       0.44485	3.37026
 97.03072	21.81700	       0.43663	3.37021
 97.08066	21.82700	       0.42874	3.37017
 97.13063	21.83700	       0.42117	3.37012
 97.18058	21.84700	       0.41335	3.37008
 97.23067	21.85700	       0.40570	3.37003
 97.28070	21.86700	       0.39815	3.36999
 97.33075	21.87700	       0.39097	3.36994
 97.38077	21.88700	       0.38375	3.36989
 97.43078	21.89700	       0.37670	3.36985
 97.48084	21.90700	       0.36977	3.36980
 97.53088	21.91700	       0.36293	3.36976
 97.58091	21.92700	       0.35662	3.36971
 97.63089	21.93700	       0.35008	3.36967
 97.68084	21.94700	       0.34362	3.36962
 97.73081	21.95700	       0.33729	3.36958
 97.78075	21.96700	       0.33124	3.36953
 97.83073	21.97700	       0.32515	3.36948
 97.88075	21.98700	       0.31906	3.36944
 97.93070	21.99700	       0.31345	3.36939
 97.98071	22.00700	       0.30766	3.36935
 98.03067	22.01700	       0.30193	3.36930
 98.08058	22.02700	       0.29618	3.36925
 98.13053	22.03700	       0.29067	3.36921
 98.18048	22.04700	       0.28523	3.36916
 98.23042	22.05700	       0.28002	3.36912
 98.28037	22.06700	       0.27490	3.36907
 98.33034	22.07700	       0.26976	3.36902
 98.38033	22.08700	       0.26467	3.36898
 98.43029	22.09700	       0.25971	3.36893
 98.48030	22.10700	       0.25489	3.36888
 98.53029	22.11700	       0.25038	3.36884
 98.58027	22.12700	       0.24554	3.36879
 98.63026	22.13700	       0.24081	3.36874
 98.68029	22.14700	       0.23629	3.36870
 98.73034	22.15700	       0.23197	3.36865
 98.78035	22.16700	       0.22760	3.36860
 98.83037	22.17700	       0.22323	3.36856
 98.88038	22.18700	       0.21898	3.36851
 98.93042	22.19700	       0.21487	3.36846
 98.98045	22.20700	       0.21059	3.36842
 99.03045	22.21700	       0.20641	3.36837
 99.08051	22.22700	       0.20259	3.36832
 99.13055	22.23700	       0.19898	3.36827
 99.18058	22.24700	       0.19533	3.36823
 99.23063	22.25700	       0.19147	3.36818
 99.28063	22.26700	       0.18767	3.36813
 99.33067	22.27700	       0.18398	3.36808
 99.38067	22.28700	       0.18047	3.36804
 99.43074	22.29700	       0.17692	3.36799
 99.48077	22.30700	       0.17362	3.36794
 99.53075	22.31700	       0.17039	3.36789
 99.58077	22.32700	       0.16703	3.36785
 99.63075	22.33700	       0.16367	3.36780
 99.68081	22.34700	       0.16055	3.36775
 99.73087	22.35700	       0.15738	3.36770
 99.78092	22.36700	       0.15417	3.36765
 99.83100	22.37700	       0.15112	3.36761
 99.88102	22.38700	       0.14809	3.36756
 99.93105	22.39700	       0.14552	3.36751
 99.98108	22.40700	       0.14261	3.36746
100.03113	22.41700	       0.13976	3.36741
100.08116	22.42700	       0.13697	3.36737
100.13123	22.43700	       0.13422	3.36732
100.18124	22.44700	       0.13151	3.36727
100.23126	22.45700	       0.12890	3.36722
100.28128	22.46700	       0.12631	3.36717
100.33131	22.47700	       0.12368	3.36712
100.38127	22.48700	       0.12114	3.36707
100.43124	22.49700	       0.11848	3.36703
100.48121	22.50700	       0.11620	3.36698
100.53119	22.51700	       0.11387	3.36693
100.58115	22.52700	       0.11151	3.36688
100.63111	22.53700	       0.10915	3.36683
100.68111	22.54700	       0.10681	3.36678
100.73109	22.55700	       0.10456	3.36673
100.78109	22.56700	       0.10239	3.36668
100.83109	22.57700	 9.988149e-002	3.36663
100.88112	22.58700	 9.781832e-002	3.36658
100.93114	22.59700	 9.577611e-002	3.36654
100.98117	22.60700	 9.370830e-002	3.36649
101.03119	22.61700	 9.165374e-002	3.36644
101.08121	22.62700	 8.961652e-002	3.36639
101.13122	22.63700	 8.742896e-002	3.36634
101.18120	22.64700	 8.530131e-002	3.36629
101.23119	22.65700	 8.344289e-002	3.36624
101.28122	22.66700	 8.151343e-002	3.36619
101.33122	22.67700	 7.951001e-002	3.36614
101.38127	22.68700	 7.765145e-002	3.36609
101.43131	22.69700	 7.574918e-002	3.36604
101.48129	22.70700	 7.376610e-002	3.36599
101.53132	22.71700	 7.192574e-002	3.36594
101.58133	22.72700	 7.017783e-002	3.36589
101.63134	22.73700	 6.843193e-002	3.36584
101.68136	22.74700	 6.669010e-002	3.36579
101.73134	22.75700	 6.486221e-002	3.36574
101.78132	22.76700	 6.306525e-002	3.36569
101.83125	22.77700	 6.155373e-002	3.36564
101.88122	22.78700	 6.009903e-002	3.36559
101.93121	22.79700	 5.843272e-002	3.36554
101.98120	22.80700	 5.675435e-002	3.36549
102.03117	22.81700	 5.519332e-002	3.36544
102.08116	22.82700	 5.357520e-002	3.36539
102.13116	22.83700	 5.207636e-002	3.36534
102.18112	22.84700	 5.057559e-002	3.36529
102.23114	22.85700	 4.902580e-002	3.36524
102.28116	22.86700	 4.777981e-002	3.36519
102.33118	22.87700	 4.645886e-002	3.36514
102.38120	22.88700	 4.507622e-002	3.36508
102.43126	22.89700	 4.374948e-002	3.36503
102.48131	22.90700	 4.244528e-002	3.36498
102.53132	22.91700	 4.105763e-002	3.36493
102.58136	22.92700	 3.971747e-002	3.36488
102.63141	22.93700	 3.834346e-002	3.36483
102.68141	22.94700	 3.691403e-002	3.36478
102.73140	22.95700	 3.586409e-002	3.36473
102.78138	22.96700	 3.469747e-002	3.36468
102.83135	22.97700	 3.335660e-002	3.36462
102.88133	22.98700	 3.216483e-002	3.36457
102.93132	22.99700	 3.090715e-002	3.36452
102.98125	23.00700	 2.959855e-002	3.36447
103.03117	23.01700	 2.831516e-002	3.36442
103.08115	23.02700	 2.708590e-002	3.36437
103.13112	23.03700	 2.596693e-002	3.36432
103.18109	23.04700	 2.471193e-002	3.36426
103.23111	23.05700	 2.335512e-002	3.36421
103.28107	23.06700	 2.258920e-002	3.36416
103.33103	23.07700	 2.145388e-002	3.36411
103.38100	23.08700	 2.030106e-002	3.36406
103.43098	23.09700	 1.907316e-002	3.36401
103.48099	23.10700	 1.801762e-002	3.36395
103.53101	23.11700	 1.701273e-002	3.36390
103.58105	23.12700	 1.603786e-002	3.36385
103.63109	23.13700	 1.497005e-002	3.36380
103.68111	23.14700	 1.394149e-002	3.36375
103.73111	23.15700	 1.290762e-002	3.36369
103.78108	23.16700	 1.191284e-002	3.36364
103.83104	23.17700	 1.091677e-002	3.36359
103.88110	23.18700	 9.971885e-003	3.36354
103.93106	23.19700	 9.022334e-003	3.36348
103.98105	23.20700	 8.104139e-003	3.36343
104.03103	23.21700	 7.148510e-003	3.36338
104.08105	23.22700	 6.315188e-003	3.36333
104.13104	23.23700	 5.333156e-003	3.36327
104.18106	23.24700	 4.371602e-003	3.36322
104.23109	23.25700	 3.433142e-003	3.36317
104.28111	23.26700	 2.731648e-003	3.36311
104.33111	23.27700	 1.832297e-003	3.36306
104.38110	23.28700	 7.624205e-004	3.36301
104.43109	23.29700	-1.433521e-004	3.36296
104.48110	23.30700	-9.249629e-004	3.36290
104.53109	23.31700	-1.814993e-003	3.36285
104.58109	23.32700	-2.660018e-003	3.36280
104.63107	23.33700	-3.452636e-003	3.36274
104.68103	23.34700	-4.152633e-003	3.36269
104.73098	23.35700	-4.879711e-003	3.36264
104.78096	23.36700	-5.693987e-003	3.36258
104.83094	23.37700	-6.498776e-003	3.36253
104.88092	23.38700	-7.236237e-003	3.36248
104.93089	23.39700	-8.146478e-003	3.36242
104.98089	23.40700	-8.894076e-003	3.36237
105.03091	23.41700	-9.560860e-003	3.36232
105.08097	23.42700	-1.042032e-002	3.36226
105.13096	23.43700	-1.102707e-002	3.36221
105.18094	23.44700	-1.170163e-002	3.36215
105.23093	23.45700	-1.260276e-002	3.36210
105.28094	23.46700	-1.329715e-002	3.36205
105.33095	23.47700	-1.376736e-002	3.36199
105.38096	23.48700	-1.456778e-002	3.36194
105.43093	23.49700	-1.544122e-002	3.36188
105.48091	23.50700	-1.614615e-002	3.36183
105.53086	23.51700	-1.678299e-002	3.36178
105.58080	23.52700	-1.711810e-002	3.36172
105.63076	23.53700	-1.807580e-002	3.36167
105.68072	23.54700	-1.877796e-002	3.36161
105.73067	23.55700	-1.921260e-002	3.36156
105.78067	23.56700	-1.997283e-002	3.36151
105.83067	23.57700	-2.061065e-002	3.36145
105.88064	23.58700	-2.138164e-002	3.36140
105.93062	23.59700	-2.197656e-002	3.36134
105.98064	23.60700	-2.255835e-002	3.36129
106.03063	23.61700	-2.325948e-002	3.36123
106.08063	23.62700	-2.407088e-002	3.36118
106.13062	23.63700	-2.444324e-002	3.36112
106.18062	23.64700	-2.500135e-002	3.36107
106.23062	23.65700	-2.567947e-002	3.36101
106.28059	23.66700	-2.623311e-002	3.36096
106.33057	23.67700	-2.702121e-002	3.36090
106.38060	23.68700	-2.755702e-002	3.36085
106.43058	23.69700	-2.781667e-002	3.36079
106.48056	23.70700	-2.841869e-002	3.36074
106.53052	23.71700	-2.914443e-002	3.36068
106.58055	23.72700	-2.966641e-002	3.36063
106.63055	23.73700	-3.028931e-002	3.36057
106.68061	23.74700	-3.085645e-002	3.36052
106.73069	23.75700	-3.150988e-002	3.36046
106.78075	23.76700	-3.201280e-002	3.36040
106.83082	23.77700	-3.260922e-002	3.36035
106.88087	23.78700	-3.312354e-002	3.36029
106.93088	23.79700	-3.360989e-002	3.36024
106.98096	23.80700	-3.409933e-002	3.36018
107.03101	23.81700	-3.461470e-002	3.36013
107.08104	23.82700	-3.522114e-002	3.36007
107.13104	23.83700	-3.577497e-002	3.36001
107.18107	23.84700	-3.630443e-002	3.35996
107.23113	23.85700	-3.683733e-002	3.35990
107.28118	23.86700	-3.727564e-002	3.35985
107.33118	23.87700	-3.768442e-002	3.35979
107.38123	23.88700	-3.820177e-002	3.35973
107.43124	23.89700	-3.868031e-002	3.35968
107.48131	23.90700	-3.927054e-002	3.35962
107.53137	23.91700	-3.979318e-002	3.35957
107.58140	23.92700	-4.012299e-002	3.35951
107.63139	23.93700	-4.067352e-002	3.35945
107.68138	23.94700	-4.120300e-002	3.35940
107.73135	23.95700	-4.146258e-002	3.35934
107.78135	23.96700	-4.203935e-002	3.35928
107.83130	23.97700	-4.247919e-002	3.35923
107.88128	23.98700	-4.289660e-002	3.35917
107.93126	23.99700	-4.330465e-002	3.35911
107.98124	24.00700	-4.369263e-002	3.35906
108.03119	24.01700	-4.405120e-002	3.35900
108.08117	24.02700	-4.433399e-002	3.35894
108.13117	24.03700	-4.478413e-002	3.35889
108.18114	24.04700	-4.532470e-002	3.35883
108.23112	24.05700	-4.569357e-002	3.35877
108.28106	24.06700	-4.605144e-002	3.35871
108.33108	24.07700	-4.654538e-002	3.35866
108.38108	24.08700	-4.695260e-002	3.35860
108.43106	24.09700	-4.731504e-002	3.35854
108.48105	24.10700	-4.766118e-002	3.35849
108.53108	24.11700	-4.798856e-002	3.35843
108.58111	24.12700	-4.832704e-002	3.35837
108.63113	24.13700	-4.863917e-002	3.35831
108.68114	24.14700	-4.901284e-002	3.35826
108.73113	24.15700	-4.955896e-002	3.35820
108.78115	24.16700	-4.964602e-002	3.35814
108.83113	24.17700	-5.028969e-002	3.35808
108.88114	24.18700	-5.050998e-002	3.35803
108.93121	24.19700	-5.096389e-002	3.35797
108.98125	24.20700	-5.144811e-002	3.35791
109.03124	24.21700	-5.187405e-002	3.35785
109.08126	24.22700	-5.223947e-002	3.35779
109.13129	24.23700	-5.260941e-002	3.35774
109.18133	24.24700	-5.302752e-002	3.35768
109.23136	24.25700	-5.341576e-002	3.35762
109.28133	24.26700	-5.377286e-002	3.35756
109.33132	24.27700	-5.415480e-002	3.35750
109.38129	24.28700	-5.450946e-002	3.35744
109.43124	24.29700	-5.518243e-002	3.35739
109.48124	24.30700	-5.532005e-002	3.35733
109.53121	24.31700	-5.571828e-002	3.35727
109.58118	24.32700	-5.601490e-002	3.35721
109.63119	24.33700	-5.640095e-002	3.35715
109.68117	24.34700	-5.652279e-002	3.35709
109.73114	24.35700	-5.687861e-002	3.35704
109.78118	24.36700	-5.736682e-002	3.35698
109.83124	24.37700	-5.779839e-002	3.35692
109.88135	24.38700	-5.790249e-002	3.35686
109.93146	24.39700	-5.820137e-002	3.35680
109.98158	24.40700	-5.862418e-002	3.35674
110.03167	24.41700	-5.863703e-002	3.35668
110.08182	24.42700	-5.901709e-002	3.35662
110.13190	24.43700	-5.920970e-002	3.35656
110.18199	24.44700	-5.963141e-002	3.35650
110.23208	24.45700	-5.985295e-002	3.35645
110.28214	24.46700	-6.012541e-002	3.35639
110.33216	24.47700	-6.025130e-002	3.35633
110.38216	24.48700	-6.058749e-002	3.35627
110.43216	24.49700	-6.082213e-002	3.35621
110.48218	24.50700	-6.110483e-002	3.35615
110.53221	24.51700	-6.139048e-002	3.35609
110.58222	24.52700	-6.159648e-002	3.35603
110.63216	24.53700	-6.186384e-002	3.35597
110.68209	24.54700	-6.223000e-002	3.35591
110.73204	24.55700	-6.264958e-002	3.35585
110.78200	24.56700	-6.268873e-002	3.35579
110.83193	24.57700	-6.310283e-002	3.35573
110.88190	24.58700	-6.348025e-002	3.35567
110.93185	24.59700	-6.386055e-002	3.35561
110.98179	24.60700	-6.420795e-002	3.35555
111.03175	24.61700	-6.453048e-002	3.35549
111.08172	24.62700	-6.480135e-002	3.35543
111.13168	24.63700	-6.496071e-002	3.35537
111.18165	24.64700	-6.498020e-002	3.35531
111.23163	24.65700	-6.528885e-002	3.35525
111.28162	24.66700	-6.549333e-002	3.35519
111.33163	24.67700	-6.565321e-002	3.35513
111.38159	24.68700	-6.609727e-002	3.35507
111.43160	24.69700	-6.645635e-002	3.35501
111.48162	24.70700	-6.674781e-002	3.35495
111.53162	24.71700	-6.700819e-002	3.35489
111.58163	24.72700	-6.708817e-002	3.35483
111.63162	24.73700	-6.755238e-002	3.35477
111.68165	24.74700	-6.755735e-002	3.35471
111.73163	24.75700	-6.775391e-002	3.35465
111.78164	24.76700	-6.819912e-002	3.35459
111.83163	24.77700	-6.874931e-002	3.35453
111.88158	24.78700	-6.880275e-002	3.35447
111.93150	24.79700	-6.904729e-002	3.35440
111.98144	24.80700	-6.941656e-002	3.35434
112.03142	24.81700	-6.967832e-002	3.35428
112.08138	24.82700	-6.997431e-002	3.35422
112.13134	24.83700	-7.021566e-002	3.35416
112.18130	24.84700	-7.044500e-002	3.35410
112.23127	24.85700	-7.065606e-002	3.35404
112.28129	24.86700	-7.093940e-002	3.35398
112.33132	24.87700	-7.119317e-002	3.35392
112.38134	24.88700	-7.143743e-002	3.35385
112.43134	24.89700	-7.170931e-002	3.35379
112.48136	24.90700	-7.201872e-002	3.35373
112.53136	24.91700	-7.227011e-002	3.35367
112.58133	24.92700	-7.247809e-002	3.35361
112.63132	24.93700	-7.263624e-002	3.35355
112.68139	24.94700	-7.280840e-002	3.35349
112.73142	24.95700	-7.295341e-002	3.35342
112.78149	24.96700	-7.318934e-002	3.35336
112.83154	24.97700	-7.351896e-002	3.35330
112.88158	24.98700	-7.379303e-002	3.35324
112.93164	24.99700	-7.408145e-002	3.35318
112.98164	25.00700	-7.433396e-002	3.35311
113.03165	25.01700	-7.454257e-002	3.35305
113.08163	25.02700	-7.477882e-002	3.35299
113.13162	25.03700	-7.500254e-002	3.35293
113.18160	25.04700	-7.519259e-002	3.35287
113.23158	25.05700	-7.528302e-002	3.35280
113.28156	25.06700	-7.558638e-002	3.35274
113.33152	25.07700	-7.585910e-002	3.35268
113.38151	25.08700	-7.595876e-002	3.35262
113.43152	25.09700	-7.617324e-002	3.35255
113.48148	25.10700	-7.633563e-002	3.35249
113.53144	25.11700	-7.640720e-002	3.35243
113.58137	25.12700	-7.662125e-002	3.35237
113.63137	25.13700	-7.684576e-002	3.35230
113.68139	25.14700	-7.714702e-002	3.35224
113.73140	25.15700	-7.744773e-002	3.35218
113.78140	25.16700	-7.768792e-002	3.35212
113.83140	25.17700	-7.790182e-002	3.35205
113.88141	25.18700	-7.804117e-002	3.35199
113.93141	25.19700	-7.796078e-002	3.35193
113.98144	25.20700	-7.808929e-002	3.35186
114.03142	25.21700	-7.825061e-002	3.35180
114.08138	25.22700	-7.847081e-002	3.35174
114.13139	25.23700	-7.865221e-002	3.35167
114.18138	25.24700	-7.890027e-002	3.35161
114.23142	25.25700	-7.914944e-002	3.35155
114.28139	25.26700	-7.940987e-002	3.35148
114.33134	25.27700	-7.958885e-002	3.35142
114.38134	25.28700	-7.967847e-002	3.35136
114.43134	25.29700	-8.002012e-002	3.35129
114.48134	25.30700	-8.022007e-002	3.35123
114.53134	25.31700	-8.031509e-002	3.35117
114.58136	25.32700	-8.052372e-002	3.35110
114.63139	25.33700	-8.066043e-002	3.35104
114.68144	25.34700	-8.068368e-002	3.35098
114.73147	25.35700	-8.087340e-002	3.35091
114.78151	25.36700	-8.107270e-002	3.35085
114.83150	25.37700	-8.139742e-002	3.35078
114.88154	25.38700	-8.167542e-002	3.35072
114.93148	25.39700	-8.198828e-002	3.35066
114.98146	25.40700	-8.217688e-002	3.35059
115.03142	25.41700	-8.238841e-002	3.35053
115.08139	25.42700	-8.242743e-002	3.35046
115.13136	25.43700	-8.253746e-002	3.35040
115.18135	25.44700	-8.274861e-002	3.35034
115.23136	25.45700	-8.297991e-002	3.35027
115.28135	25.46700	-8.332575e-002	3.35021
115.33132	25.47700	-8.358797e-002	3.35014
115.38138	25.48700	-8.354083e-002	3.35008
115.43136	25.49700	-8.379822e-002	3.35001
115.48139	25.50700	-8.403484e-002	3.34995
115.53142	25.51700	-8.413958e-002	3.34988
115.58147	25.52700	-8.433584e-002	3.34982
115.63150	25.53700	-8.440718e-002	3.34976
115.68146	25.54700	-8.457850e-002	3.34969
115.73145	25.55700	-8.483043e-002	3.34963
115.78144	25.56700	-8.512497e-002	3.34956
115.83145	25.57700	-8.531433e-002	3.34950
115.88150	25.58700	-8.534636e-002	3.34943
115.93149	25.59700	-8.556329e-002	3.34937
115.98150	25.60700	-8.562134e-002	3.34930
116.03147	25.61700	-8.588578e-002	3.34924
116.08149	25.62700	-8.607812e-002	3.34917
116.13150	25.63700	-8.632710e-002	3.34911
116.18147	25.64700	-8.663759e-002	3.34904
116.23144	25.65700	-8.685914e-002	3.34897
116.28145	25.66700	-8.706435e-002	3.34891
116.33147	25.67700	-8.735022e-002	3.34884
116.38148	25.68700	-8.759088e-002	3.34878
116.43147	25.69700	-8.765882e-002	3.34871
116.48143	25.70700	-8.766587e-002	3.34865
116.53137	25.71700	-8.796247e-002	3.34858
116.58135	25.72700	-8.820140e-002	3.34852
116.63130	25.73700	-8.849864e-002	3.34845
116.68127	25.74700	-8.876883e-002	3.34839
116.73126	25.75700	-8.895417e-002	3.34832
116.78120	25.76700	-8.899629e-002	3.34825
116.83119	25.77700	-8.938180e-002	3.34819
116.88116	25.78700	-8.977696e-002	3.34812
116.93114	25.79700	-9.002950e-002	3.34806
116.98118	25.80700	-9.005375e-002	3.34799
117.03121	25.81700	-9.040894e-002	3.34792
117.08121	25.82700	-9.072958e-002	3.34786
117.13127	25.83700	-9.099834e-002	3.34779
117.18129	25.84700	-9.126472e-002	3.34773
117.23132	25.85700	-9.149626e-002	3.34766
117.28131	25.86700	-9.174513e-002	3.34759
117.33131	25.87700	-9.202131e-002	3.34753
117.38133	25.88700	-9.226986e-002	3.34746
117.43134	25.89700	-9.264517e-002	3.34739
117.48136	25.90700	-9.290796e-002	3.34733
117.53136	25.91700	-9.301379e-002	3.34726
117.58136	25.92700	-9.323416e-002	3.34719
117.63136	25.93700	-9.356697e-002	3.34713
117.68136	25.94700	-9.381458e-002	3.34706
117.73134	25.95700	-9.419123e-002	3.34699
117.78129	25.96700	-9.458925e-002	3.34693
117.83131	25.97700	-9.485620e-002	3.34686
117.88129	25.98700	-9.538740e-002	3.34679
117.93127	25.99700	-9.578849e-002	3.34672
117.98126	26.00700	-9.607593e-002	3.34666
118.03124	26.01700	-9.632590e-002	3.34659
118.08118	26.02700	-9.658945e-002	3.34652
118.13114	26.03700	-9.687436e-002	3.34646
118.18109	26.04700	-9.716051e-002	3.34639
118.23106	26.05700	-9.742075e-002	3.34632
118.28102	26.06700	-9.774957e-002	3.34625
118.33096	26.07700	-9.819076e-002	3.34619
118.38088	26.08700	-9.862437e-002	3.34612
118.43085	26.09700	-9.902727e-002	3.34605
118.48085	26.10700	-9.943503e-002	3.34598
118.53088	26.11700	-9.984335e-002	3.34592
118.58092	26.12700	      -0.10012	3.34585
118.63091	26.13700	      -0.10067	3.34578
118.68097	26.14700	      -0.10112	3.34571
118.73094	26.15700	      -0.10142	3.34565
118.78095	26.16700	      -0.10181	3.34558
118.83094	26.17700	      -0.10231	3.34551
118.88093	26.18700	      -0.10277	3.34544
118.93093	26.19700	      -0.10327	3.34537
118.98094	26.20700	      -0.10380	3.34531
119.03089	26.21700	      -0.10441	3.34524
119.08088	26.22700	      -0.10502	3.34517
119.13088	26.23700	      -0.10546	3.34510
119.18084	26.24700	      -0.10596	3.34503
119.23085	26.25700	      -0.10658	3.34497
119.28084	26.26700	      -0.10725	3.34490
119.33081	26.27700	      -0.10783	3.34483
119.38082	26.28700	      -0.10834	3.34476
119.43081	26.29700	      -0.10914	3.34469
119.48079	26.30700	      -0.10969	3.34462
119.53076	26.31700	      -0.11039	3.34455
119.58077	26.32700	      -0.11109	3.34449
119.63080	26.33700	      -0.11195	3.34442
119.68082	26.34700	      -0.11257	3.34435
119.73088	26.35700	      -0.11310	3.34428
119.78096	26.36700	      -0.11398	3.34421
119.83103	26.37700	      -0.11474	3.34414
119.88108	26.38700	      -0.11564	3.34407
119.93109	26.39700	      -0.11652	3.34400
119.98112	26.40700	      -0.11723	3.34393
120.03116	26.41700	      -0.11807	3.34387
120.08122	26.42700	      -0.11910	3.34380
120.13134	26.43700	      -0.12001	3.34373
120.18139	26.44700	      -0.12101	3.34366
120.23140	26.45700	      -0.12185	3.34359
120.28142	26.46700	      -0.12282	3.34352
120.33142	26.47700	      -0.12372	3.34345
120.38143	26.48700	      -0.12472	3.34338
120.43145	26.49700	      -0.12585	3.34331
120.48144	26.50700	      -0.12706	3.34324
120.53142	26.51700	      -0.12810	3.34317
120.58140	26.52700	      -0.12908	3.34310
120.63139	26.53700	      -0.13027	3.34303
120.68134	26.54700	      -0.13145	3.34296
120.73131	26.55700	      -0.13249	3.34289
120.78125	26.56700	      -0.13366	3.34282
120.83121	26.57700	      -0.13511	3.34275
120.88118	26.58700	      -0.13646	3.34268
120.93118	26.59700	      -0.13772	3.34261
120.98115	26.60700	      -0.13897	3.34254
121.03113	26.61700	      -0.14028	3.34247
121.08118	26.62700	      -0.14167	3.34240
121.13121	26.63700	      -0.14329	3.34233
121.18120	26.64700	      -0.14483	3.34226
121.23122	26.65700	      -0.14635	3.34219
121.28121	26.66700	      -0.14785	3.34212
121.33122	26.67700	      -0.14935	3.34205
121.38125	26.68700	      -0.15094	3.34198
121.43126	26.69700	      -0.15263	3.34191
121.48129	26.70700	      -0.15425	3.34184
121.53129	26.71700	      -0.15592	3.34177
121.58131	26.72700	      -0.15774	3.34170
121.63131	26.73700	      -0.15973	3.34163
121.68131	26.74700	      -0.16154	3.34156
121.73132	26.75700	      -0.16338	3.34149
121.78129	26.76700	      -0.16524	3.34142
121.83126	26.77700	      -0.16721	3.34134
121.88125	26.78700	      -0.16912	3.34127
121.93117	26.79700	      -0.17112	3.34120
121.98117	26.80700	      -0.17309	3.34113
122.03118	26.81700	      -0.17515	3.34106
122.08120	26.82700	      -0.17720	3.34099
122.13114	26.83700	      -0.17928	3.34092
122.18108	26.84700	      -0.18139	3.34085
122.23113	26.85700	      -0.18353	3.34078
122.28111	26.86700	      -0.18565	3.34070
122.33114	26.87700	      -0.18783	3.34063
122.38121	26.88700	      -0.18997	3.34056
122.43121	26.89700	      -0.19218	3.34049
122.48121	26.90700	      -0.19435	3.34042
122.53124	26.91700	      -0.19643	3.34035
122.58128	26.92700	      -0.19860	3.34028
122.63132	26.93700	      -0.20076	3.34020
122.68134	26.94700	      -0.20300	3.34013
122.73139	26.95700	      -0.20500	3.34006
122.78145	26.96700	      -0.20709	3.33999
122.83152	26.97700	      -0.20931	3.33992
122.88156	26.98700	      -0.21135	3.33984
122.93159	26.99700	      -0.21334	3.33977
122.98159	27.00700	      -0.21523	3.33970
123.03160	27.01700	      -0.21712	3.33963
123.08158	27.02700	      -0.21899	3.33956
123.13155	27.03700	      -0.22092	3.33948
123.18156	27.04700	      -0.22264	3.33941
123.23157	27.05700	      -0.22422	3.33934
123.28152	27.06700	      -0.22593	3.33927
123.33155	27.07700	      -0.22762	3.33919
123.38156	27.08700	      -0.22934	3.33912
123.43154	27.09700	      -0.23100	3.33905
123.48156	27.10700	      -0.23257	3.33898
123.53154	27.11700	      -0.23391	3.33890
123.58156	27.12700	      -0.23537	3.33883
123.63155	27.13700	      -0.23680	3.33876
123.68153	27.14700	      -0.23817	3.33869
123.73154	27.15700	      -0.23949	3.33861
123.78151	27.16700	      -0.24066	3.33854
123.83157	27.17700	      -0.24170	3.33847
123.88155	27.18700	      -0.24267	3.33840
123.93154	27.19700	      -0.24339	3.33832
123.98159	27.20700	      -0.24429	3.33825
124.03160	27.21700	      -0.24504	3.33818
124.08157	27.22700	      -0.24586	3.33810
124.13154	27.23700	      -0.24633	3.33803
124.18156	27.24700	      -0.24700	3.33796
124.23153	27.25700	      -0.24707	3.33788
124.28151	27.26700	      -0.24730	3.33781
124.33150	27.27700	      -0.24777	3.33774
124.38147	27.28700	      -0.24793	3.33766
124.43145	27.29700	      -0.24788	3.33759
124.48148	27.30700	      -0.24787	3.33752
124.53150	27.31700	      -0.24750	3.33744
124.58150	27.32700	      -0.24705	3.33737
124.63152	27.33700	      -0.24663	3.33730
124.68152	27.34700	      -0.24581	3.33722
124.73153	27.35700	      -0.24484	3.33715
124.78151	27.36700	      -0.24390	3.33708
124.83150	27.37700	      -0.24261	3.33700
124.88150	27.38700	      -0.24131	3.33693
124.93152	27.39700	      -0.23970	3.33685
124.98151	27.40700	      -0.23800	3.33678
125.03154	27.41700	      -0.23606	3.33671
125.08155	27.42700	      -0.23373	3.33663
125.13160	27.43700	      -0.23166	3.33656
125.18161	27.44700	      -0.22904	3.33648
125.23163	27.45700	      -0.22641	3.33641
125.28166	27.46700	      -0.22355	3.33634
125.33170	27.47700	      -0.22048	3.33626
125.38167	27.48700	      -0.21713	3.33619
125.43168	27.49700	      -0.21371	3.33611
125.48169	27.50700	      -0.21027	3.33604
125.53167	27.51700	      -0.20658	3.33596
125.58169	27.52700	      -0.20254	3.33589
125.63165	27.53700	      -0.19862	3.33581
125.68167	27.54700	      -0.19474	3.33574
125.73168	27.55700	      -0.19078	3.33566
125.78168	27.56700	      -0.18682	3.33559
125.83165	27.57700	      -0.18286	3.33552
125.88163	27.58700	      -0.17891	3.33544
125.93165	27.59700	      -0.17495	3.33537
125.98167	27.60700	      -0.17124	3.33529
126.03167	27.61700	      -0.16757	3.33522
126.08169	27.62700	      -0.16386	3.33514
126.13168	27.63700	      -0.16037	3.33507
126.18169	27.64700	      -0.15733	3.33499
126.23170	27.65700	      -0.15432	3.33492
126.28172	27.66700	      -0.15128	3.33484
126.33172	27.67700	      -0.14883	3.33476
126.38175	27.68700	      -0.14624	3.33469
126.43173	27.69700	      -0.14392	3.33461
126.48172	27.70700	      -0.14190	3.33454
126.53168	27.71700	      -0.13993	3.33446
126.58169	27.72700	      -0.13818	3.33439
126.63167	27.73700	      -0.13666	3.33431
126.68164	27.74700	      -0.13524	3.33424
126.73163	27.75700	      -0.13411	3.33416
126.78164	27.76700	      -0.13297	3.33409
126.83162	27.77700	      -0.13197	3.33401
126.88159	27.78700	      -0.13097	3.33393
126.93152	27.79700	      -0.13033	3.33386
126.98147	27.80700	      -0.12979	3.33378
127.03142	27.81700	      -0.12931	3.33371
127.08137	27.82700	      -0.12877	3.33363
127.13132	27.83700	      -0.12849	3.33356
127.18128	27.84700	      -0.12822	3.33348
127.23122	27.85700	      -0.12793	3.33340
127.28113	27.86700	      -0.12754	3.33333
127.33108	27.87700	      -0.12741	3.33325
127.38104	27.88700	      -0.12741	3.33317
127.43104	27.89700	      -0.12735	3.33310
127.48105	27.90700	      -0.12717	3.33302
127.53101	27.91700	      -0.12722	3.33295
127.58100	27.92700	      -0.12729	3.33287
127.63103	27.93700	      -0.12734	3.33279
127.68104	27.94700	      -0.12743	3.33272
127.73101	27.95700	      -0.12756	3.33264
127.78103	27.96700	      -0.12773	3.33256
127.83106	27.97700	      -0.12798	3.33249
127.88107	27.98700	      -0.12819	3.33241
127.93106	27.99700	      -0.12845	3.33233
127.98104	28.00700	      -0.12863	3.33226
128.03103	28.01700	      -0.12879	3.33218
128.08100	28.02700	      -0.12890	3.33210
128.13101	28.03700	      -0.12908	3.33203
128.18104	28.04700	      -0.12937	3.33195
128.23108	28.05700	      -0.12969	3.33187
128.28111	28.06700	      -0.13006	3.33179
128.33114	28.07700	      -0.13051	3.33172
128.38117	28.08700	      -0.13074	3.33164
128.43119	28.09700	      -0.13104	3.33156
128.48122	28.10700	      -0.13139	3.33149
128.53119	28.11700	      -0.13172	3.33141
128.58120	28.12700	      -0.13198	3.33133
128.63121	28.13700	      -0.13236	3.33125
128.68121	28.14700	      -0.13254	3.33118
128.73124	28.15700	      -0.13277	3.33110
128.78126	28.16700	      -0.13312	3.33102
128.83126	28.17700	      -0.13359	3.33094
128.88127	28.18700	      -0.13366	3.33086
128.93133	28.19700	      -0.13403	3.33079
128.98137	28.20700	      -0.13436	3.33071
129.03141	28.21700	      -0.13469	3.33063
129.08146	28.22700	      -0.13498	3.33055
129.13152	28.23700	      -0.13522	3.33048
129.18155	28.24700	      -0.13548	3.33040
129.23157	28.25700	      -0.13579	3.33032
129.28165	28.26700	      -0.13610	3.33024
129.33172	28.27700	      -0.13638	3.33016
129.38177	28.28700	      -0.13671	3.33008
129.43183	28.29700	      -0.13704	3.33001
129.48186	28.30700	      -0.13726	3.32993
129.53186	28.31700	      -0.13753	3.32985
129.58186	28.32700	      -0.13787	3.32977
129.63183	28.33700	      -0.13817	3.32969
129.68180	28.34700	      -0.13860	3.32961
129.73178	28.35700	      -0.13900	3.32954
129.78177	28.36700	      -0.13927	3.32946
129.83173	28.37700	      -0.13959	3.32938
129.88169	28.38700	      -0.13981	3.32930
129.93168	28.39700	      -0.14018	3.32922
129.98168	28.40700	      -0.14049	3.32914
130.03167	28.41700	      -0.14084	3.32906
130.08169	28.42700	      -0.14117	3.32899
130.13166	28.43700	      -0.14155	3.32891
130.18163	28.44700	      -0.14194	3.32883
130.23158	28.45700	      -0.14236	3.32875
130.28155	28.46700	      -0.14234	3.32867
130.33152	28.47700	      -0.14281	3.32859
130.38146	28.48700	      -0.14310	3.32851
130.43144	28.49700	      -0.14363	3.32843
130.48139	28.50700	      -0.14389	3.32835
130.53137	28.51700	      -0.14436	3.32828
130.58139	28.52700	      -0.14462	3.32820
130.63142	28.53700	      -0.14468	3.32812
130.68142	28.54700	      -0.14509	3.32804
130.73142	28.55700	      -0.14551	3.32796
130.78139	28.56700	      -0.14582	3.32788
130.83135	28.57700	      -0.14625	3.32780
130.88133	28.58700	      -0.14660	3.32772
130.93130	28.59700	      -0.14684	3.32764
130.98126	28.60700	      -0.14714	3.32756
131.03121	28.61700	      -0.14744	3.32748
131.08116	28.62700	      -0.14775	3.32740
131.13112	28.63700	      -0.14807	3.32732
131.18107	28.64700	      -0.14842	3.32724
131.23108	28.65700	      -0.14876	3.32716
131.28109	28.66700	      -0.14908	3.32708
131.33106	28.67700	      -0.14919	3.32700
131.38102	28.68700	      -0.14955	3.32692
131.43099	28.69700	      -0.14979	3.32684
131.48096	28.70700	      -0.15007	3.32676
131.53096	28.71700	      -0.15050	3.32668
131.58099	28.72700	      -0.15091	3.32660
131.63101	28.73700	      -0.15120	3.32652
131.68103	28.74700	      -0.15153	3.32644
131.73113	28.75700	      -0.15186	3.32636
131.78119	28.76700	      -0.15223	3.32628
131.83128	28.77700	      -0.15246	3.32620
131.88135	28.78700	      -0.15271	3.32612
131.93139	28.79700	      -0.15302	3.32604
131.98140	28.80700	      -0.15330	3.32596
132.03146	28.81700	      -0.15353	3.32588
132.08149	28.82700	      -0.15379	3.32580
132.13150	28.83700	      -0.15407	3.32572
132.18155	28.84700	      -0.15444	3.32563
132.23162	28.85700	      -0.15453	3.32555
132.28166	28.86700	      -0.15483	3.32547
132.33167	28.87700	      -0.15525	3.32539
132.38169	28.88700	      -0.15520	3.32531
132.43172	28.89700	      -0.15543	3.32523
132.48176	28.90700	      -0.15563	3.32515
132.53180	28.91700	      -0.15598	3.32507
132.58184	28.92700	      -0.15629	3.32499
132.63183	28.93700	      -0.15656	3.32491
132.68181	28.94700	      -0.15666	3.32482
132.73180	28.95700	      -0.15669	3.32474
132.78177	28.96700	      -0.15686	3.32466
132.83180	28.97700	      -0.15714	3.32458
132.88185	28.98700	      -0.15736	3.32450
132.93190	28.99700	      -0.15756	3.32442
132.98194	29.00700	      -0.15765	3.32434
133.03198	29.01700	      -0.15783	3.32425
133.08204	29.02700	      -0.15804	3.32417
133.13209	29.03700	      -0.15818	3.32409
133.18213	29.04700	      -0.15839	3.32401
133.23219	29.05700	      -0.15849	3.32393
133.28215	29.06700	      -0.15859	3.32385
133.33216	29.07700	      -0.15883	3.32376
133.38216	29.08700	      -0.15894	3.32368
133.43212	29.09700	      -0.15906	3.32360
133.48209	29.10700	      -0.15920	3.32352
133.53204	29.11700	      -0.15936	3.32344
133.58199	29.12700	      -0.15940	3.32335
133.63194	29.13700	      -0.15953	3.32327
133.68190	29.14700	      -0.15966	3.32319
133.73184	29.15700	      -0.15976	3.32311
133.78172	29.16700	      -0.15995	3.32303
133.83163	29.17700	      -0.16022	3.32294
133.88158	29.18700	      -0.16027	3.32286
133.93150	29.19700	      -0.16040	3.32278
133.98147	29.20700	      -0.16047	3.32270
134.03139	29.21700	      -0.16054	3.32261
134.08135	29.22700	      -0.16059	3.32253
134.13132	29.23700	      -0.16067	3.32245
134.18127	29.24700	      -0.16083	3.32237
134.23124	29.25700	      -0.16105	3.32228
134.28121	29.26700	      -0.16100	3.32220
134.33116	29.27700	      -0.16111	3.32212
134.38117	29.28700	      -0.16114	3.32204
134.43119	29.29700	      -0.16124	3.32195
134.48116	29.30700	      -0.16138	3.32187
134.53116	29.31700	      -0.16149	3.32179
134.58113	29.32700	      -0.16165	3.32171
134.63116	29.33700	      -0.16177	3.32162
134.68115	29.34700	      -0.16194	3.32154
134.73116	29.35700	      -0.16200	3.32146
134.78118	29.36700	      -0.16196	3.32137
134.83121	29.37700	      -0.16201	3.32129
134.88122	29.38700	      -0.16224	3.32121
134.93124	29.39700	      -0.16226	3.32112
134.98121	29.40700	      -0.16228	3.32104
135.03122	29.41700	      -0.16238	3.32096
135.08119	29.42700	      -0.16247	3.32087
135.13119	29.43700	      -0.16248	3.32079
135.18117	29.44700	      -0.16250	3.32071
135.23114	29.45700	      -0.16247	3.32062
135.28116	29.46700	      -0.16249	3.32054
135.33116	29.47700	      -0.16247	3.32046
135.38111	29.48700	      -0.16257	3.32037
135.43114	29.49700	      -0.16266	3.32029
135.48116	29.50700	      -0.16273	3.32020
135.53118	29.51700	      -0.16265	3.32012
135.58122	29.52700	      -0.16262	3.32004
135.63122	29.53700	      -0.16263	3.31995
135.68126	29.54700	      -0.16262	3.31987
135.73129	29.55700	      -0.16260	3.31978
135.78135	29.56700	      -0.16261	3.31970
135.83142	29.57700	      -0.16259	3.31962
135.88147	29.58700	      -0.16256	3.31953
135.93150	29.59700	      -0.16254	3.31945
135.98152	29.60700	      -0.16256	3.31936
136.03154	29.61700	      -0.16250	3.31928
136.08156	29.62700	      -0.16263	3.31919
136.13157	29.63700	      -0.16262	3.31911
136.18157	29.64700	      -0.16256	3.31903
136.23158	29.65700	      -0.16248	3.31894
136.28157	29.66700	      -0.16242	3.31886
136.33160	29.67700	      -0.16235	3.31877
136.38162	29.68700	      -0.16235	3.31869
136.43160	29.69700	      -0.16229	3.31860
136.48160	29.70700	      -0.16220	3.31852
136.53160	29.71700	      -0.16217	3.31843
136.58164	29.72700	      -0.16214	3.31835
136.63165	29.73700	      -0.16213	3.31826
136.68165	29.74700	      -0.16214	3.31818
136.73168	29.75700	      -0.16210	3.31809
136.78169	29.76700	      -0.16207	3.31801
136.83170	29.77700	      -0.16219	3.31792
136.88167	29.78700	      -0.16216	3.31784
136.93168	29.79700	      -0.16190	3.31775
136.98167	29.80700	      -0.16192	3.31767
137.03168	29.81700	      -0.16192	3.31758
137.08169	29.82700	      -0.16187	3.31750
137.13173	29.83700	      -0.16184	3.31741
137.18171	29.84700	      -0.16182	3.31733
137.23172	29.85700	      -0.16175	3.31724
137.28174	29.86700	      -0.16173	3.31716
137.33175	29.87700	      -0.16169	3.31707
137.38184	29.88700	      -0.16167	3.31699
137.43188	29.89700	      -0.16153	3.31690
137.48193	29.90700	      -0.16149	3.31682
137.53195	29.91700	      -0.16150	3.31673
137.58196	29.92700	      -0.16155	3.31664
137.63198	29.93700	      -0.16141	3.31656
137.68202	29.94700	      -0.16132	3.31647
137.73201	29.95700	      -0.16131	3.31639
137.78204	29.96700	      -0.16119	3.31630
137.83203	29.97700	      -0.16112	3.31621
137.88202	29.98700	      -0.16112	3.31613
137.93203	29.99700	      -0.16109	3.31604
137.98199	30.00700	      -0.16101	3.31596
138.03201	30.01700	      -0.16091	3.31587
138.08202	30.02700	      -0.16085	3.31578
138.13201	30.03700	      -0.16084	3.31570
138.18201	30.04700	      -0.16071	3.31561
138.23201	30.05700	      -0.16070	3.31553
138.28195	30.06700	      -0.16060	3.31544
138.33188	30.07700	      -0.16056	3.31535
138.38183	30.08700	      -0.16054	3.31527
138.43178	30.09700	      -0.16037	3.31518
138.48175	30.10700	      -0.16030	3.31509
138.53172	30.11700	      -0.16031	3.31501
138.58168	30.12700	      -0.16025	3.31492
138.63163	30.13700	      -0.16024	3.31484
138.68162	30.14700	      -0.16024	3.31475
138.73158	30.15700	      -0.16015	3.31466
138.78155	30.16700	      -0.16012	3.31458
138.83150	30.17700	      -0.16003	3.31449
138.88149	30.18700	      -0.15981	3.31440
138.93145	30.19700	      -0.15985	3.31432
138.98141	30.20700	      -0.15973	3.31423
139.03142	30.21700	      -0.15960	3.31414
139.08140	30.22700	      -0.15957	3.31405
139.13137	30.23700	      -0.15956	3.31397
139.18139	30.24700	      -0.15953	3.31388
139.23142	30.25700	      -0.15948	3.31379
139.28141	30.26700	      -0.15943	3.31371
139.33142	30.27700	      -0.15935	3.31362
139.38139	30.28700	      -0.15942	3.31353
139.43135	30.29700	      -0.15933	3.31344
139.48135	30.30700	      -0.15932	3.31336
139.53132	30.31700	      -0.15935	3.31327
139.58130	30.32700	      -0.15940	3.31318
139.63129	30.33700	      -0.15939	3.31309
139.68127	30.34700	      -0.15931	3.31301
139.73127	30.35700	      -0.15932	3.31292
139.78123	30.36700	      -0.15927	3.31283
139.83119	30.37700	      -0.15926	3.31274
139.88121	30.38700	      -0.15916	3.31266
139.93119	30.39700	      -0.15909	3.31257
139.98117	30.40700	      -0.15910	3.31248
140.03121	30.41700	      -0.15909	3.31239
140.08120	30.42700	      -0.15909	3.31231
140.13121	30.43700	      -0.15908	3.31222
140.18124	30.44700	      -0.15900	3.31213
140.23126	30.45700	      -0.15891	3.31204
140.28126	30.46700	      -0.15890	3.31195
140.33132	30.47700	      -0.15876	3.31187
140.38137	30.48700	      -0.15871	3.31178
140.43139	30.49700	      -0.15874	3.31169
140.48142	30.50700	      -0.15863	3.31160
140.53142	30.51700	      -0.15864	3.31151
140.58144	30.52700	      -0.15863	3.31142
140.63150	30.53700	      -0.15859	3.31134
140.68152	30.54700	      -0.15854	3.31125
140.73154	30.55700	      -0.15846	3.31116
140.78153	30.56700	      -0.15841	3.31107
140.83154	30.57700	      -0.15834	3.31098
140.88154	30.58700	      -0.15827	3.31089
140.93155	30.59700	      -0.15827	3.31080
140.98155	30.60700	      -0.15830	3.31072
141.03155	30.61700	      -0.15834	3.31063
141.08154	30.62700	      -0.15819	3.31054
141.13155	30.63700	      -0.15800	3.31045
141.18154	30.64700	      -0.15794	3.31036
141.23148	30.65700	      -0.15802	3.31027
141.28142	30.66700	      -0.15782	3.31018
141.33140	30.67700	      -0.15791	3.31009
141.38136	30.68700	      -0.15780	3.31001
141.43132	30.69700	      -0.15781	3.30992
141.48130	30.70700	      -0.15762	3.30983
141.53131	30.71700	      -0.15759	3.30974
141.58130	30.72700	      -0.15754	3.30965
141.63129	30.73700	      -0.15747	3.30956
141.68131	30.74700	      -0.15751	3.30947
141.73131	30.75700	      -0.15739	3.30938
141.78130	30.76700	      -0.15737	3.30929
141.83136	30.77700	      -0.15727	3.30920
141.88139	30.78700	      -0.15715	3.30911
141.93139	30.79700	      -0.15710	3.30902
141.98143	30.80700	      -0.15710	3.30893
142.03145	30.81700	      -0.15706	3.30884
142.08146	30.82700	      -0.15703	3.30875
142.13149	30.83700	      -0.15694	3.30866
142.18150	30.84700	      -0.15688	3.30857
142.23149	30.85700	      -0.15679	3.30848
142.28150	30.86700	      -0.15669	3.30839
142.33152	30.87700	      -0.15666	3.30831
142.38152	30.88700	      -0.15659	3.30822
142.43154	30.89700	      -0.15659	3.30813
142.48160	30.90700	      -0.15658	3.30804
142.53160	30.91700	      -0.15654	3.30795
142.58164	30.92700	      -0.15654	3.30785
142.63162	30.93700	      -0.15640	3.30776
142.68164	30.94700	      -0.15649	3.30767
142.73165	30.95700	      -0.15653	3.30758
142.78168	30.96700	      -0.15655	3.30749
142.83170	30.97700	      -0.15651	3.30740
142.88169	30.98700	      -0.15646	3.30731
142.93168	30.99700	      -0.15639	3.30722
142.98169	31.00700	      -0.15641	3.30713
143.03168	31.01700	      -0.15639	3.30704
143.08167	31.02700	      -0.15641	3.30695
143.13172	31.03700	      -0.15631	3.30686
143.18172	31.04700	      -0.15614	3.30677
143.23178	31.05700	      -0.15608	3.30668
143.28186	31.06700	      -0.15612	3.30659
143.33193	31.07700	      -0.15615	3.30650
143.38199	31.08700	      -0.15593	3.30641
143.43205	31.09700	      -0.15590	3.30632
143.48203	31.10700	      -0.15580	3.30623
143.53206	31.11700	      -0.15575	3.30613
143.58207	31.12700	      -0.15550	3.30604
143.63213	31.13700	      -0.15530	3.30595
143.68219	31.14700	      -0.15542	3.30586
143.73223	31.15700	      -0.15536	3.30577
143.78227	31.16700	      -0.15529	3.30568
143.83229	31.17700	      -0.15526	3.30559
143.88224	31.18700	      -0.15526	3.30550
143.93219	31.19700	      -0.15517	3.30541
143.98214	31.20700	      -0.15502	3.30531
144.03208	31.21700	      -0.15492	3.30522
144.08201	31.22700	      -0.15491	3.30513
144.13191	31.23700	      -0.15490	3.30504
144.18183	31.24700	      -0.15490	3.30495
144.23175	31.25700	      -0.15479	3.30486
144.28168	31.26700	      -0.15475	3.30477
144.33165	31.27700	      -0.15467	3.30468
144.38160	31.28700	      -0.15463	3.30458
144.43158	31.29700	      -0.15456	3.30449
144.48151	31.30700	      -0.15433	3.30440
144.53142	31.31700	      -0.15422	3.30431
144.58143	31.32700	      -0.15421	3.30422
144.63140	31.33700	      -0.15411	3.30413
144.68138	31.34700	      -0.15401	3.30403
144.73130	31.35700	      -0.15407	3.30394
144.78129	31.36700	      -0.15394	3.30385
144.83129	31.37700	      -0.15392	3.30376
144.88130	31.38700	      -0.15384	3.30367
144.93132	31.39700	      -0.15369	3.30357
144.98134	31.40700	      -0.15358	3.30348
145.03136	31.41700	      -0.15347	3.30339
145.08137	31.42700	      -0.15350	3.30330
145.13137	31.43700	      -0.15339	3.30321
145.18136	31.44700	      -0.15336	3.30311
145.23134	31.45700	      -0.15336	3.30302
145.28129	31.46700	      -0.15330	3.30293
145.33126	31.47700	      -0.15330	3.30284
145.38125	31.48700	      -0.15327	3.30274
145.43122	31.49700	      -0.15327	3.30265
145.48125	31.50700	      -0.15322	3.30256
145.53131	31.51700	      -0.15327	3.30247
145.58134	31.52700	      -0.15329	3.30237
145.63135	31.53700	      -0.15328	3.30228
145.68134	31.54700	      -0.15334	3.30219
145.73134	31.55700	      -0.15330	3.30210
145.78128	31.56700	      -0.15321	3.30200
145.83127	31.57700	      -0.15320	3.30191
145.88127	31.58700	      -0.15321	3.30182
145.93129	31.59700	      -0.15311	3.30172
145.98129	31.60700	      -0.15303	3.30163
146.03132	31.61700	      -0.15296	3.30154
146.08136	31.62700	      -0.15293	3.30144
146.13139	31.63700	      -0.15298	3.30135
146.18145	31.64700	      -0.15291	3.30126
146.23149	31.65700	      -0.15278	3.30116
146.28152	31.66700	      -0.15268	3.30107
146.33153	31.67700	      -0.15253	3.30098
146.38151	31.68700	      -0.15230	3.30089
146.43152	31.69700	      -0.15231	3.30079
146.48152	31.70700	      -0.15243	3.30070
146.53159	31.71700	      -0.15242	3.30060
146.58161	31.72700	      -0.15216	3.30051
146.63160	31.73700	      -0.15213	3.30042
146.68158	31.74700	      -0.15200	3.30032
146.73158	31.75700	      -0.15178	3.30023
146.78155	31.76700	      -0.15166	3.30014
146.83148	31.77700	      -0.15171	3.30004
146.88142	31.78700	      -0.15158	3.29995
146.93139	31.79700	      -0.15145	3.29986
146.98132	31.80700	      -0.15130	3.29976
147.03127	31.81700	      -0.15116	3.29967
147.08126	31.82700	      -0.15115	3.29957
147.13127	31.83700	      -0.15112	3.29948
147.18125	31.84700	      -0.15112	3.29939
147.23124	31.85700	      -0.15112	3.29929
147.28126	31.86700	      -0.15110	3.29920
147.33122	31.87700	      -0.15101	3.29911
147.38122	31.88700	      -0.15091	3.29901
147.43117	31.89700	      -0.15079	3.29892
147.48115	31.90700	      -0.15077	3.29882
147.53106	31.91700	      -0.15082	3.29873
147.58101	31.92700	      -0.15079	3.29863
147.63099	31.93700	      -0.15070	3.29854
147.68097	31.94700	      -0.15069	3.29845
147.73096	31.95700	      -0.15058	3.29835
147.78096	31.96700	      -0.15056	3.29826
147.83096	31.97700	      -0.15048	3.29816
147.88096	31.98700	      -0.15042	3.29807
147.93100	31.99700	      -0.15034	3.29797
147.98104	32.00700	      -0.15032	3.29788
148.03106	32.01700	      -0.15031	3.29778
148.08110	32.02700	      -0.15026	3.29769
148.13111	32.03700	      -0.15018	3.29759
148.18119	32.04700	      -0.15021	3.29750
148.23124	32.05700	      -0.15020	3.29740
148.28127	32.06700	      -0.15016	3.29731
148.33132	32.07700	      -0.15018	3.29721
148.38137	32.08700	      -0.15013	3.29712
148.43144	32.09700	      -0.15010	3.29702
148.48152	32.10700	      -0.14999	3.29693
148.53157	32.11700	      -0.14994	3.29683
148.58159	32.12700	      -0.14988	3.29674
148.63164	32.13700	      -0.14987	3.29664
148.68166	32.14700	      -0.14988	3.29655
148.73172	32.15700	      -0.14989	3.29645
148.78177	32.16700	      -0.14982	3.29636
148.83183	32.17700	      -0.14971	3.29626
148.88190	32.18700	      -0.14973	3.29617
148.93191	32.19700	      -0.14969	3.29607
148.98198	32.20700	      -0.14965	3.29597
149.03208	32.21700	      -0.14951	3.29588
149.08212	32.22700	      -0.14941	3.29578
149.13214	32.23700	      -0.14934	3.29569
149.18216	32.24700	      -0.14920	3.29559
149.23222	32.25700	      -0.14912	3.29550
149.28233	32.26700	      -0.14907	3.29540
149.33235	32.27700	      -0.14897	3.29530
149.38233	32.28700	      -0.14886	3.29521
149.43235	32.29700	      -0.14880	3.29511
149.48234	32.30700	      -0.14867	3.29502
149.53232	32.31700	      -0.14851	3.29492
149.58225	32.32700	      -0.14847	3.29483
149.63214	32.33700	      -0.14833	3.29473
149.68221	32.34700	      -0.14830	3.29463
149.73219	32.35700	      -0.14816	3.29454
149.78204	32.36700	      -0.14815	3.29444
149.83185	32.37700	      -0.14812	3.29435
149.88180	32.38700	      -0.14803	3.29425
149.93166	32.39700	      -0.14792	3.29415
149.98182	32.40700	      -0.14787	3.29406

